milliseconds, ECG, ECG HR, PPG, PPG HR, SpO2, PI
1523629844327,589824,85,-56,-1,-1,0
1523629844327,393216,85,-56,-1,-1,0
1523629844327,327680,85,-56,-1,-1,0
1523629844327,458752,85,-56,-1,-1,0
1523629844327,458752,85,-56,-1,-1,0
1523629844390,524288,85,-56,-1,-1,0
1523629844390,524288,85,-56,-1,-1,0
1523629844390,524288,85,-56,-1,-1,0
1523629844390,524288,85,-56,-1,-1,0
1523629844390,524288,85,-56,-1,-1,0
1523629844407,524288,85,-56,-1,-1,0
1523629844407,524288,85,-56,-1,-1,0
1523629844407,589824,85,-56,-1,-1,0
1523629844407,589824,85,-56,-1,-1,0
1523629844407,393216,85,-56,-1,-1,0
1523629844447,262144,85,-56,-1,-1,0
1523629844447,196608,85,-56,-1,-1,0
1523629844447,196608,85,-56,-1,-1,0
1523629844447,196608,85,-56,-1,-1,0
1523629844447,262144,85,-56,-1,-1,0
1523629844487,393216,85,-56,-1,-1,0
1523629844487,524288,85,-56,-1,-1,0
1523629844487,589824,85,-56,-1,-1,0
1523629844487,655360,85,-56,-1,-1,0
1523629844487,720896,85,-56,-1,-1,0
1523629844527,655360,85,-56,-1,-1,0
1523629844527,589824,85,-56,-1,-1,0
1523629844527,720896,85,-56,-1,-1,0
1523629844527,720896,85,-56,-1,-1,0
1523629844527,524288,85,-56,-1,-1,0
1523629844567,262144,85,-56,-1,-1,0
1523629844567,-131072,85,-56,-1,-1,0
1523629844567,-1966080,85,-56,-1,-1,0
1523629844567,-5308416,85,-56,-1,-1,0
1523629844567,-7274496,85,-56,-1,-1,0
1523629844607,-4784128,85,-56,-1,-1,0
1523629844607,-262144,85,-56,-1,-1,0
1523629844607,2097152,85,-56,-1,-1,0
1523629844607,2097152,85,-56,-1,-1,0
1523629844607,1441792,85,-56,-1,-1,0
1523629844647,786432,85,-56,-1,-1,0
1523629844647,458752,85,-56,-1,-1,0
1523629844647,327680,85,-56,-1,-1,0
1523629844647,262144,85,-56,-1,-1,0
1523629844647,196608,85,-56,-1,-1,0
1523629844687,131072,85,-56,-1,-1,0
1523629844687,65536,85,-56,-1,-1,0
1523629844687,0,85,-56,-1,-1,0
1523629844687,-196608,85,-56,-1,-1,0
1523629844687,-393216,85,-56,-1,-1,0
1523629844727,-458752,85,-56,-1,-1,0
1523629844727,-589824,85,-56,-1,-1,0
1523629844727,-720896,85,-56,-1,-1,0
1523629844727,-851968,85,-56,-1,-1,0
1523629844727,-1048576,85,-56,-1,-1,0
1523629844767,-1376256,85,-56,-1,-1,0
1523629844767,-1769472,85,-56,-1,-1,0
1523629844767,-2162688,85,-56,-1,-1,0
1523629844767,-2424832,85,-56,-1,-1,0
1523629844767,-2621440,85,-56,-1,-1,0
1523629844807,-2752512,85,-56,-1,-1,0
1523629844807,-2686976,85,-56,-1,-1,0
1523629844807,-2359296,85,-56,-1,-1,0
1523629844807,-1966080,85,-56,-1,-1,0
1523629844807,-1441792,85,-56,-1,-1,0
1523629844847,-983040,85,-56,-1,-1,0
1523629844847,-589824,85,-56,-1,-1,0
1523629844847,-262144,85,-56,-1,-1,0
1523629844847,-65536,85,-56,-1,-1,0
1523629844847,131072,85,-56,-1,-1,0
1523629844887,262144,85,-56,-1,-1,0
1523629844887,327680,85,-56,-1,-1,0
1523629844887,393216,85,-56,-1,-1,0
1523629844887,393216,85,-56,-1,-1,0
1523629844887,327680,85,-56,-1,-1,0
1523629844927,262144,85,-56,-1,-1,0
1523629844927,393216,85,-56,-1,-1,0
1523629844927,524288,85,-56,-1,-1,0
1523629844927,524288,85,-56,-1,-1,0
1523629844927,524288,85,-56,-1,-1,0
1523629844967,458752,85,-56,-1,-1,0
1523629844967,458752,85,-56,-1,-1,0
1523629844967,524288,85,-56,-1,-1,0
1523629844967,524288,85,-56,-1,-1,0
1523629844967,524288,85,-56,-1,-1,0
1523629845030,524288,85,-56,-1,-1,0
1523629845030,589824,85,-56,-1,-1,0
1523629845030,524288,85,-56,-1,-1,0
1523629845030,393216,85,-56,-1,-1,0
1523629845030,327680,85,-56,-1,-1,0
1523629845047,327680,85,-56,-1,-1,0
1523629845047,327680,85,-56,-1,-1,0
1523629845047,393216,85,-56,-1,-1,0
1523629845047,393216,85,-56,-1,-1,0
1523629845047,327680,85,-56,-1,-1,0
1523629845087,327680,85,-56,-1,-1,0
1523629845087,393216,85,-56,-1,-1,0
1523629845087,393216,85,-56,-1,-1,0
1523629845087,458752,85,-56,-1,-1,0
1523629845087,458752,85,-56,-1,-1,0
1523629845127,327680,85,-56,-1,-1,0
1523629845127,262144,85,-56,-1,-1,0
1523629845127,196608,85,-56,-1,-1,0
1523629845127,131072,85,-56,-1,-1,0
1523629845127,196608,85,-56,-1,-1,0
1523629845169,327680,85,-56,-1,-1,0
1523629845169,458752,85,-56,-1,-1,0
1523629845169,524288,85,-56,-1,-1,0
1523629845169,524288,85,-56,-1,-1,0
1523629845169,589824,85,-56,-1,-1,0
1523629845207,655360,85,-56,-1,-1,0
1523629845207,589824,85,-56,-1,-1,0
1523629845207,458752,85,-56,-1,-1,0
1523629845207,524288,85,-56,-1,-1,0
1523629845207,589824,85,-56,-1,-1,0
1523629845247,720896,85,-56,-1,-1,0
1523629845247,720896,85,-56,-1,-1,0
1523629845247,458752,85,-56,-1,-1,0
1523629845247,-983040,85,-56,-1,-1,0
1523629845247,-4390912,85,-56,-1,-1,0
1523629845287,-7733248,86,-56,-1,-1,0
1523629845287,-6684672,86,-56,-1,-1,0
1523629845287,-2097152,86,-56,-1,-1,0
1523629845287,1441792,86,-56,-1,-1,0
1523629845287,2097152,86,-56,-1,-1,0
1523629845327,1572864,86,-56,-1,-1,0
1523629845327,1114112,86,-56,-1,-1,0
1523629845327,786432,86,-56,-1,-1,0
1523629845327,720896,86,-56,-1,-1,0
1523629845327,655360,86,-56,-1,-1,0
1523629845367,524288,86,-56,-1,-1,0
1523629845367,327680,86,-56,-1,-1,0
1523629845367,393216,86,-56,-1,-1,0
1523629845367,393216,86,-56,-1,-1,0
1523629845367,196608,86,-56,-1,-1,0
1523629845407,0,86,-56,-1,-1,0
1523629845407,0,86,-56,-1,-1,0
1523629845407,-131072,86,-56,-1,-1,0
1523629845407,-262144,86,-56,-1,-1,0
1523629845407,-393216,86,-56,-1,-1,0
1523629845447,-720896,86,-56,-1,-1,0
1523629845447,-983040,86,-56,-1,-1,0
1523629845447,-1310720,86,-56,-1,-1,0
1523629845447,-1703936,86,-56,-1,-1,0
1523629845447,-2031616,86,-56,-1,-1,0
1523629845487,-2228224,86,-56,-1,-1,0
1523629845487,-2228224,86,-56,-1,-1,0
1523629845487,-2162688,86,-56,-1,-1,0
1523629845487,-1966080,86,-56,-1,-1,0
1523629845487,-1703936,86,-56,-1,-1,0
1523629845527,-1245184,86,-56,-1,-1,0
1523629845527,-720896,86,-56,-1,-1,0
1523629845527,-393216,86,-56,-1,-1,0
1523629845527,-262144,86,-56,-1,-1,0
1523629845527,-196608,86,-56,-1,-1,0
1523629845567,65536,86,-56,-1,-1,0
1523629845567,327680,86,-56,-1,-1,0
1523629845567,393216,86,-56,-1,-1,0
1523629845567,458752,86,-56,-1,-1,0
1523629845567,458752,86,-56,-1,-1,0
1523629845607,458752,86,-56,-1,-1,0
1523629845607,524288,86,-56,-1,-1,0
1523629845607,524288,86,-56,-1,-1,0
1523629845607,524288,86,-56,-1,-1,0
1523629845607,524288,86,-56,-1,-1,0
1523629845647,458752,86,-56,-1,-1,0
1523629845647,458752,86,-56,-1,-1,0
1523629845647,524288,86,-56,-1,-1,0
1523629845647,524288,86,-56,-1,-1,0
1523629845647,458752,86,-56,-1,-1,0
1523629845689,524288,86,-56,-1,-1,0
1523629845689,589824,86,-56,-1,-1,0
1523629845689,589824,86,-56,-1,-1,0
1523629845689,524288,86,-56,-1,-1,0
1523629845689,458752,86,-56,-1,-1,0
1523629845727,524288,86,-56,-1,-1,0
1523629845727,524288,86,-56,-1,-1,0
1523629845727,458752,86,-56,-1,-1,0
1523629845727,393216,86,-56,-1,-1,0
1523629845727,458752,86,-56,-1,-1,0
1523629845767,458752,86,-56,-1,-1,0
1523629845767,393216,86,-56,-1,-1,0
1523629845767,458752,86,-56,-1,-1,0
1523629845767,458752,86,-56,-1,-1,0
1523629845767,524288,86,-56,-1,-1,0
1523629845807,589824,86,-56,-1,-1,0
1523629845807,655360,86,-56,-1,-1,0
1523629845807,786432,86,-56,-1,-1,0
1523629845807,720896,86,-56,-1,-1,0
1523629845807,589824,86,-56,-1,-1,0
1523629845847,458752,86,-56,-1,-1,0
1523629845847,393216,86,-56,-1,-1,0
1523629845847,458752,86,-56,-1,-1,0
1523629845847,327680,86,-56,-1,-1,0
1523629845847,262144,86,-56,-1,-1,0
1523629845887,327680,86,-56,-1,-1,0
1523629845887,524288,86,-56,-1,-1,0
1523629845887,589824,86,-56,-1,-1,0
1523629845887,655360,86,-56,-1,-1,0
1523629845887,786432,86,-56,-1,-1,0
1523629845927,851968,86,-56,-1,-1,0
1523629845927,786432,86,-56,-1,-1,0
1523629845927,720896,86,-56,-1,-1,0
1523629845927,720896,86,-56,-1,-1,0
1523629845927,786432,86,-56,-1,-1,0
1523629845967,786432,86,-56,-1,-1,0
1523629845967,720896,86,-56,-1,-1,0
1523629845967,393216,86,-56,-1,-1,0
1523629845967,-1310720,86,-56,-1,-1,0
1523629845967,-4980736,86,-56,-1,-1,0
1523629846009,-8060928,86,-56,-1,-1,0
1523629846009,-6553600,86,-56,-1,-1,0
1523629846009,-1769472,86,-56,-1,-1,0
1523629846009,1507328,86,-56,-1,-1,0
1523629846009,2097152,86,-56,-1,-1,0
1523629846047,1638400,86,-56,-1,-1,0
1523629846047,1245184,86,-56,-1,-1,0
1523629846047,917504,86,-56,-1,-1,0
1523629846047,786432,86,-56,-1,-1,0
1523629846047,589824,86,-56,-1,-1,0
1523629846087,524288,86,-56,-1,-1,0
1523629846087,589824,86,-56,-1,-1,0
1523629846087,524288,86,-56,-1,-1,0
1523629846087,393216,86,-56,-1,-1,0
1523629846087,131072,86,-56,-1,-1,0
1523629846127,65536,86,-56,-1,-1,0
1523629846127,0,86,-56,-1,-1,0
1523629846127,-65536,86,-56,-1,-1,0
1523629846127,-327680,86,-56,-1,-1,0
1523629846127,-393216,86,-56,-1,-1,0
1523629846168,-458752,86,-56,-1,-1,0
1523629846168,-720896,86,-56,-1,-1,0
1523629846168,-1114112,86,-56,-1,-1,0
1523629846168,-1441792,86,-56,-1,-1,0
1523629846168,-1769472,86,-56,-1,-1,0
1523629846207,-2228224,86,-56,-1,-1,0
1523629846207,-2490368,86,-56,-1,-1,0
1523629846207,-2359296,86,-56,-1,-1,0
1523629846207,-2031616,86,-56,-1,-1,0
1523629846207,-1441792,86,-56,-1,-1,0
1523629846247,-1048576,86,-56,-1,-1,0
1523629846247,-720896,86,-56,-1,-1,0
1523629846247,-327680,86,-56,-1,-1,0
1523629846247,262144,86,-56,-1,-1,0
1523629846247,720896,86,-56,-1,-1,0
1523629846287,720896,86,-56,-1,-1,0
1523629846287,458752,86,-56,-1,-1,0
1523629846287,393216,86,-56,-1,-1,0
1523629846287,458752,86,-56,-1,-1,0
1523629846287,655360,86,-56,-1,-1,0
1523629846328,851968,86,-56,-1,-1,0
1523629846328,1048576,86,-56,-1,-1,0
1523629846328,1310720,86,-56,-1,-1,0
1523629846328,1507328,86,-56,-1,-1,0
1523629846328,1507328,86,-56,-1,-1,0
1523629846367,1179648,86,-56,-1,-1,0
1523629846367,917504,86,-56,-1,-1,0
1523629846367,655360,86,-56,-1,-1,0
1523629846367,655360,86,-56,-1,-1,0
1523629846367,851968,86,-56,-1,-1,0
1523629846407,1048576,86,-56,-1,-1,0
1523629846407,1114112,86,-56,-1,-1,0
1523629846407,1179648,86,-56,-1,-1,0
1523629846407,1048576,86,-56,-1,-1,0
1523629846407,1048576,86,-56,-1,-1,0
1523629846447,1048576,86,-56,-1,-1,0
1523629846447,1048576,86,-56,-1,-1,0
1523629846447,917504,86,-56,-1,-1,0
1523629846447,851968,86,-56,-1,-1,0
1523629846447,917504,86,-56,-1,-1,0
1523629846487,1048576,86,-56,-1,-1,0
1523629846487,917504,86,-56,-1,-1,0
1523629846487,720896,86,-56,-1,-1,0
1523629846487,786432,86,-56,-1,-1,0
1523629846487,786432,86,-56,-1,-1,0
1523629846527,655360,86,-56,-1,-1,0
1523629846527,786432,86,-56,-1,-1,0
1523629846527,983040,86,-56,-1,-1,0
1523629846527,851968,86,-56,-1,-1,0
1523629846527,524288,86,-56,-1,-1,0
1523629846567,458752,86,-56,-1,-1,0
1523629846567,393216,86,-56,-1,-1,0
1523629846567,262144,86,-56,-1,-1,0
1523629846567,262144,86,-56,-1,-1,0
1523629846567,458752,86,-56,-1,-1,0
1523629846607,655360,86,-56,-1,-1,0
1523629846607,458752,86,-56,-1,-1,0
1523629846607,196608,86,-56,-1,-1,0
1523629846607,327680,86,-56,-1,-1,0
1523629846607,720896,86,-56,-1,-1,0
1523629846647,786432,86,-56,-1,-1,0
1523629846647,720896,86,-56,-1,-1,0
1523629846647,655360,86,-56,-1,-1,0
1523629846647,589824,86,-56,-1,-1,0
1523629846647,655360,86,-56,-1,-1,0
1523629846687,917504,86,-56,-1,-1,0
1523629846687,589824,86,-56,-1,-1,0
1523629846687,-786432,86,-56,-1,-1,0
1523629846687,-3604480,86,-56,-1,-1,0
1523629846687,-7340032,86,-56,-1,-1,0
1523629846727,-8126464,86,-56,-1,-1,0
1523629846727,-4128768,86,-56,-1,-1,0
1523629846727,458752,86,-56,-1,-1,0
1523629846727,1703936,86,-56,-1,-1,0
1523629846727,983040,86,-56,-1,-1,0
1523629846767,786432,86,-56,-1,-1,0
1523629846767,786432,86,-56,-1,-1,0
1523629846767,655360,86,-56,-1,-1,0
1523629846767,131072,86,-56,-1,-1,0
1523629846767,-327680,86,-56,-1,-1,0
1523629846807,-131072,86,-56,-1,-1,0
1523629846807,393216,86,-56,-1,-1,0
1523629846807,458752,86,-56,-1,-1,0
1523629846807,65536,86,-56,-1,-1,0
1523629846807,-65536,86,-56,-1,-1,0
1523629846847,-65536,86,-56,-1,-1,0
1523629846847,-393216,86,-56,-1,-1,0
1523629846847,-786432,86,-56,-1,-1,0
1523629846847,-1310720,86,-56,-1,-1,0
1523629846847,-1572864,86,-56,-1,-1,0
1523629846887,-1572864,86,-56,-1,-1,0
1523629846887,-1376256,86,-56,-1,-1,0
1523629846887,-1638400,86,-56,-1,-1,0
1523629846887,-2424832,86,-56,-1,-1,0
1523629846887,-2883584,86,-56,-1,-1,0
1523629846927,-3014656,86,-56,-1,-1,0
1523629846927,-3014656,86,-56,-1,-1,0
1523629846927,-2949120,86,-56,-1,-1,0
1523629846927,-2752512,86,-56,-1,-1,0
1523629846927,-2097152,86,-56,-1,-1,0
1523629846968,-1441792,86,-56,-1,-1,0
1523629846968,-1179648,86,-56,-1,-1,0
1523629846968,-1048576,86,-56,-1,-1,0
1523629846968,-589824,86,-56,-1,-1,0
1523629846968,-262144,86,-56,-1,-1,0
1523629847007,65536,86,-56,-1,-1,0
1523629847007,589824,86,-56,-1,-1,0
1523629847007,655360,86,-56,-1,-1,0
1523629847007,327680,86,-56,-1,-1,0
1523629847007,262144,86,-56,-1,-1,0
1523629847047,524288,86,-56,-1,-1,0
1523629847047,589824,86,-56,-1,-1,0
1523629847047,589824,86,-56,-1,-1,0
1523629847047,524288,86,-56,-1,-1,0
1523629847047,327680,86,-56,-1,-1,0
1523629847088,327680,86,-56,-1,-1,0
1523629847088,720896,86,-56,-1,-1,0
1523629847088,917504,86,-56,-1,-1,0
1523629847088,917504,86,-56,-1,-1,0
1523629847088,1114112,86,-56,-1,-1,0
1523629847127,1376256,86,-56,-1,-1,0
1523629847127,1179648,86,-56,-1,-1,0
1523629847127,786432,86,-56,-1,-1,0
1523629847127,393216,86,-56,-1,-1,0
1523629847127,327680,86,-56,-1,-1,0
1523629847168,589824,86,-56,-1,-1,0
1523629847168,983040,86,-56,-1,-1,0
1523629847168,1179648,86,-56,-1,-1,0
1523629847168,1245184,86,-56,-1,-1,0
1523629847168,1179648,86,-56,-1,-1,0
1523629847207,917504,86,-56,-1,-1,0
1523629847207,720896,86,-56,-1,-1,0
1523629847207,655360,86,-56,-1,-1,0
1523629847207,262144,86,-56,-1,-1,0
1523629847207,262144,86,-56,-1,-1,0
1523629847247,655360,86,-56,-1,-1,0
1523629847247,983040,86,-56,-1,-1,0
1523629847247,786432,86,-56,-1,-1,0
1523629847247,917504,86,-56,-1,-1,0
1523629847247,1048576,86,-56,-1,-1,0
1523629847287,589824,86,-56,-1,-1,0
1523629847287,458752,86,-56,-1,-1,0
1523629847287,851968,86,-56,-1,-1,0
1523629847287,1048576,86,-56,-1,-1,0
1523629847287,917504,86,-56,-1,-1,0
1523629847327,917504,86,-56,-1,-1,0
1523629847327,851968,86,-56,-1,-1,0
1523629847327,1114112,86,-56,-1,-1,0
1523629847327,1245184,86,-56,-1,-1,0
1523629847327,851968,86,-56,-1,-1,0
1523629847367,262144,86,-56,-1,-1,0
1523629847367,-196608,86,-56,-1,-1,0
1523629847367,-1703936,86,-56,-1,-1,0
1523629847367,-4653056,86,-56,-1,-1,0
1523629847367,-6684672,86,-56,-1,-1,0
1523629847408,-4128768,86,-56,-1,-1,0
1523629847408,917504,86,-56,-1,-1,0
1523629847408,3604480,86,-56,-1,-1,0
1523629847408,2883584,86,-56,-1,-1,0
1523629847408,1703936,86,-56,-1,-1,0
1523629847447,983040,86,-56,-1,-1,0
1523629847447,786432,86,-56,-1,-1,0
1523629847447,655360,86,-56,-1,-1,0
1523629847447,655360,86,-56,-1,-1,0
1523629847447,851968,86,-56,-1,-1,0
1523629847488,589824,86,-56,-1,-1,0
1523629847488,-65536,86,-56,-1,-1,0
1523629847488,-393216,86,-56,-1,-1,0
1523629847488,-262144,86,-56,-1,-1,0
1523629847488,-393216,86,-56,-1,-1,0
1523629847527,-720896,86,-56,-1,-1,0
1523629847527,-786432,86,-56,-1,-1,0
1523629847527,-720896,86,-56,-1,-1,0
1523629847527,-655360,86,-56,-1,-1,0
1523629847527,-1114112,86,-56,-1,-1,0
1523629847568,-1835008,86,-56,-1,-1,0
1523629847568,-2752512,86,-56,-1,-1,0
1523629847568,-3276800,86,-56,-1,-1,0
1523629847568,-3473408,86,-56,-1,-1,0
1523629847568,-3473408,86,-56,-1,-1,0
1523629847608,-3538944,86,-56,-1,-1,0
1523629847608,-3342336,86,-56,-1,-1,0
1523629847608,-2752512,86,-56,-1,-1,0
1523629847608,-2228224,86,-56,-1,-1,0
1523629847608,-1966080,86,-56,-1,-1,0
1523629847648,-1703936,86,-56,-1,-1,0
1523629847648,-1179648,86,-56,-1,-1,0
1523629847648,-655360,86,-56,-1,-1,0
1523629847648,-196608,86,-56,-1,-1,0
1523629847648,196608,86,-56,-1,-1,0
1523629847687,458752,86,-56,-1,-1,0
1523629847687,458752,86,-56,-1,-1,0
1523629847687,655360,86,-56,-1,-1,0
1523629847687,589824,86,-56,-1,-1,0
1523629847687,458752,86,-56,-1,-1,0
1523629847728,458752,86,-56,-1,-1,0
1523629847728,655360,86,-56,-1,-1,0
1523629847728,655360,86,-56,-1,-1,0
1523629847728,524288,86,-56,-1,-1,0
1523629847728,458752,86,-56,-1,-1,0
1523629847767,524288,86,-56,-1,-1,0
1523629847767,524288,86,-56,-1,-1,0
1523629847767,524288,86,-56,-1,-1,0
1523629847767,458752,86,-56,-1,-1,0
1523629847767,393216,86,-56,-1,-1,0
1523629847808,393216,86,-56,-1,-1,0
1523629847808,393216,86,-56,-1,-1,0
1523629847808,458752,86,-56,-1,-1,0
1523629847808,458752,86,-56,-1,-1,0
1523629847808,393216,86,-56,-1,-1,0
1523629847847,327680,86,-56,-1,-1,0
1523629847847,262144,86,-56,-1,-1,0
1523629847847,458752,86,-56,-1,-1,0
1523629847847,524288,86,-56,-1,-1,0
1523629847847,327680,86,-56,-1,-1,0
1523629847888,131072,86,-56,-1,-1,0
1523629847888,196608,86,-56,-1,-1,0
1523629847888,196608,86,-56,-1,-1,0
1523629847888,262144,86,-56,-1,-1,0
1523629847888,262144,86,-56,-1,-1,0
1523629847927,196608,86,-56,-1,-1,0
1523629847927,196608,86,-56,-1,-1,0
1523629847927,196608,86,-56,-1,-1,0
1523629847927,262144,86,-56,-1,-1,0
1523629847927,327680,86,-56,-1,-1,0
1523629847968,524288,86,-56,-1,-1,0
1523629847968,655360,86,-56,-1,-1,0
1523629847968,720896,86,-56,-1,-1,0
1523629847968,655360,86,-56,-1,-1,0
1523629847968,589824,86,-56,-1,-1,0
1523629848007,655360,86,-56,-1,-1,0
1523629848007,720896,86,-56,-1,-1,0
1523629848007,786432,86,-56,-1,-1,0
1523629848007,720896,86,-56,-1,-1,0
1523629848007,262144,86,-56,-1,-1,0
1523629848048,-1310720,86,-56,-1,-1,0
1523629848048,-4521984,86,-56,-1,-1,0
1523629848048,-7143424,86,-56,-1,-1,0
1523629848048,-5505024,86,-56,-1,-1,0
1523629848048,-720896,86,-56,-1,-1,0
1523629848088,2424832,86,-56,-1,-1,0
1523629848088,2752512,86,-56,-1,-1,0
1523629848088,2097152,86,-56,-1,-1,0
1523629848088,1441792,86,-56,-1,-1,0
1523629848088,983040,86,-56,-1,-1,0
1523629848128,720896,86,-56,-1,-1,0
1523629848128,589824,86,-56,-1,-1,0
1523629848128,458752,86,-56,-1,-1,0
1523629848128,262144,86,-56,-1,-1,0
1523629848128,262144,86,-56,-1,-1,0
1523629848167,131072,86,-56,-1,-1,0
1523629848167,0,86,-56,-1,-1,0
1523629848167,0,86,-56,-1,-1,0
1523629848167,196608,86,-56,-1,-1,0
1523629848167,65536,86,-56,-1,-1,0
1523629848207,-393216,86,-56,-1,-1,0
1523629848207,-786432,86,-56,-1,-1,0
1523629848207,-1114112,86,-56,-1,-1,0
1523629848207,-1376256,86,-56,-1,-1,0
1523629848207,-1572864,86,-56,-1,-1,0
1523629848248,-2031616,86,-56,-1,-1,0
1523629848248,-2359296,86,-56,-1,-1,0
1523629848248,-2555904,86,-56,-1,-1,0
1523629848248,-2621440,86,-56,-1,-1,0
1523629848248,-2555904,86,-56,-1,-1,0
1523629848288,-2228224,86,-56,-1,-1,0
1523629848288,-1769472,86,-56,-1,-1,0
1523629848288,-1179648,86,-56,-1,-1,0
1523629848288,-655360,86,-56,-1,-1,0
1523629848288,-327680,86,-56,-1,-1,0
1523629848327,0,86,-56,-1,-1,0
1523629848327,327680,86,-56,-1,-1,0
1523629848327,786432,86,-56,-1,-1,0
1523629848327,1048576,86,-56,-1,-1,0
1523629848327,983040,86,-56,-1,-1,0
1523629848368,851968,86,-56,-1,-1,0
1523629848368,786432,86,-56,-1,-1,0
1523629848368,786432,86,-56,-1,-1,0
1523629848368,917504,86,-56,-1,-1,0
1523629848368,1114112,86,-56,-1,-1,0
1523629848407,1114112,86,-56,-1,-1,0
1523629848407,917504,86,-56,-1,-1,0
1523629848407,983040,86,-56,-1,-1,0
1523629848407,1310720,86,-56,-1,-1,0
1523629848407,1441792,86,-56,-1,-1,0
1523629848448,1376256,86,-56,-1,-1,0
1523629848448,1179648,86,-56,-1,-1,0
1523629848448,983040,86,-56,-1,-1,0
1523629848448,786432,86,-56,-1,-1,0
1523629848448,786432,86,-56,-1,-1,0
1523629848487,851968,86,-56,-1,-1,0
1523629848487,983040,86,-56,-1,-1,0
1523629848487,983040,86,-56,-1,-1,0
1523629848487,851968,86,-56,-1,-1,0
1523629848487,983040,86,-56,-1,-1,0
1523629848528,1114112,86,-56,-1,-1,0
1523629848528,983040,86,-56,-1,-1,0
1523629848528,917504,86,-56,-1,-1,0
1523629848528,917504,86,-56,-1,-1,0
1523629848528,851968,86,-56,-1,-1,0
1523629848567,655360,86,-56,-1,-1,0
1523629848567,458752,86,-56,-1,-1,0
1523629848567,524288,86,-56,-1,-1,0
1523629848567,983040,86,-56,-1,-1,0
1523629848567,1114112,86,-56,-1,-1,0
1523629848608,851968,86,-56,-1,-1,0
1523629848608,589824,86,-56,-1,-1,0
1523629848608,786432,86,-56,-1,-1,0
1523629848608,786432,86,-56,-1,-1,0
1523629848608,720896,86,-56,-1,-1,0
1523629848647,786432,86,-56,-1,-1,0
1523629848647,1179648,86,-56,-1,-1,0
1523629848647,1245184,86,-56,-1,-1,0
1523629848647,1114112,86,-56,-1,-1,0
1523629848647,983040,86,-56,-1,-1,0
1523629848687,917504,86,-56,-1,-1,0
1523629848687,720896,86,-56,-1,-1,0
1523629848687,0,86,-56,-1,-1,0
1523629848687,-2424832,86,-56,-1,-1,0
1523629848687,-6029312,86,-56,-1,-1,0
1523629848727,-7143424,86,-56,-1,-1,0
1523629848727,-3866624,86,-56,-1,-1,0
1523629848727,327680,86,-56,-1,-1,0
1523629848727,1966080,86,-56,-1,-1,0
1523629848727,1966080,86,-56,-1,-1,0
1523629848767,1769472,86,-56,-1,-1,0
1523629848767,1376256,86,-56,-1,-1,0
1523629848767,1048576,86,-56,-1,-1,0
1523629848767,1114112,86,-56,-1,-1,0
1523629848767,1179648,86,-56,-1,-1,0
1523629848807,655360,86,-56,-1,-1,0
1523629848807,131072,86,-56,-1,-1,0
1523629848807,0,86,-56,-1,-1,0
1523629848807,131072,86,-56,-1,-1,0
1523629848807,196608,86,-56,-1,-1,0
1523629848847,131072,86,-56,-1,-1,0
1523629848847,0,86,-56,-1,-1,0
1523629848847,-131072,86,-56,-1,-1,0
1523629848847,-196608,86,-56,-1,-1,0
1523629848847,-524288,86,-56,-1,-1,0
1523629848888,-851968,86,-56,-1,-1,0
1523629848888,-1114112,86,-56,-1,-1,0
1523629848888,-1441792,86,-56,-1,-1,0
1523629848888,-1966080,86,-56,-1,-1,0
1523629848888,-2359296,86,-56,-1,-1,0
1523629848927,-2621440,86,-56,-1,-1,0
1523629848927,-2555904,86,-56,-1,-1,0
1523629848927,-2293760,86,-56,-1,-1,0
1523629848927,-1966080,86,-56,-1,-1,0
1523629848927,-1507328,86,-56,-1,-1,0
1523629848967,-917504,86,-56,-1,-1,0
1523629848967,-327680,86,-56,-1,-1,0
1523629848967,-65536,86,-56,-1,-1,0
1523629848967,65536,86,-56,-1,-1,0
1523629848967,131072,86,-56,-1,-1,0
1523629849007,65536,86,-56,-1,-1,0
1523629849007,131072,86,-56,-1,-1,0
1523629849007,458752,86,-56,-1,-1,0
1523629849007,589824,86,-56,-1,-1,0
1523629849007,589824,86,-56,-1,-1,0
1523629849047,655360,86,-56,-1,-1,0
1523629849047,655360,86,-56,-1,-1,0
1523629849047,589824,86,-56,-1,-1,0
1523629849047,655360,86,-56,-1,-1,0
1523629849047,655360,86,-56,-1,-1,0
1523629849087,655360,86,-56,-1,-1,0
1523629849087,589824,86,-56,-1,-1,0
1523629849087,524288,86,-56,-1,-1,0
1523629849087,458752,86,-56,-1,-1,0
1523629849087,458752,86,-56,-1,-1,0
1523629849127,655360,86,-56,-1,-1,0
1523629849127,786432,86,-56,-1,-1,0
1523629849127,655360,86,-56,-1,-1,0
1523629849127,458752,86,-56,-1,-1,0
1523629849127,589824,86,-56,-1,-1,0
1523629849167,720896,86,-56,-1,-1,0
1523629849167,655360,86,-56,-1,-1,0
1523629849167,327680,86,-56,-1,-1,0
1523629849167,196608,86,-56,-1,-1,0
1523629849167,327680,86,-56,-1,-1,0
1523629849207,524288,86,-56,-1,-1,0
1523629849207,655360,86,-56,-1,-1,0
1523629849207,524288,86,-56,-1,-1,0
1523629849207,131072,86,-56,-1,-1,0
1523629849207,0,86,-56,-1,-1,0
1523629849247,131072,86,-56,-1,-1,0
1523629849247,458752,86,-56,-1,-1,0
1523629849247,786432,86,-56,-1,-1,0
1523629849247,786432,86,-56,-1,-1,0
1523629849247,655360,86,-56,-1,-1,0
1523629849287,720896,86,-56,-1,-1,0
1523629849287,786432,86,-56,-1,-1,0
1523629849287,786432,86,-56,-1,-1,0
1523629849287,786432,86,-56,-1,-1,0
1523629849287,786432,86,-56,-1,-1,0
1523629849327,786432,86,-56,-1,-1,0
1523629849327,720896,86,-56,-1,-1,0
1523629849327,655360,86,-56,-1,-1,0
1523629849327,65536,86,-56,-1,-1,0
1523629849327,-1835008,86,-56,-1,-1,0
1523629849367,-5505024,86,-56,-1,-1,0
1523629849367,-7929856,86,-56,-1,-1,0
1523629849367,-5308416,86,-56,-1,-1,0
1523629849367,-393216,86,-56,-1,-1,0
1523629849367,2293760,86,-56,-1,-1,0
1523629849407,2293760,86,-56,-1,-1,0
1523629849407,1638400,86,-56,-1,-1,0
1523629849407,1114112,86,-56,-1,-1,0
1523629849407,720896,86,-56,-1,-1,0
1523629849407,589824,86,-56,-1,-1,0
1523629849447,589824,86,-56,-1,-1,0
1523629849447,458752,86,-56,-1,-1,0
1523629849447,196608,86,-56,-1,-1,0
1523629849447,0,86,-56,-1,-1,0
1523629849447,0,86,-56,-1,-1,0
1523629849487,0,86,-56,-1,-1,0
1523629849487,0,86,-56,-1,-1,0
1523629849487,-65536,86,-56,-1,-1,0
1523629849487,-262144,86,-56,-1,-1,0
1523629849487,-458752,86,-56,-1,-1,0
1523629849528,-786432,86,-56,-1,-1,0
1523629849528,-1114112,86,-56,-1,-1,0
1523629849528,-1376256,86,-56,-1,-1,0
1523629849528,-1572864,86,-56,-1,-1,0
1523629849528,-2031616,86,-56,-1,-1,0
1523629849567,-2424832,86,-56,-1,-1,0
1523629849567,-2686976,86,-56,-1,-1,0
1523629849567,-2686976,86,-56,-1,-1,0
1523629849567,-2555904,86,-56,-1,-1,0
1523629849567,-2228224,86,-56,-1,-1,0
1523629849607,-1835008,86,-56,-1,-1,0
1523629849607,-1441792,86,-56,-1,-1,0
1523629849607,-917504,86,-56,-1,-1,0
1523629849607,-393216,86,-56,-1,-1,0
1523629849607,-65536,86,-56,-1,-1,0
1523629849647,65536,86,-56,-1,-1,0
1523629849647,262144,86,-56,-1,-1,0
1523629849647,327680,86,-56,-1,-1,0
1523629849647,327680,86,-56,-1,-1,0
1523629849647,327680,86,-56,-1,-1,0
1523629849687,458752,86,-56,-1,-1,0
1523629849687,524288,86,-56,-1,-1,0
1523629849687,524288,86,-56,-1,-1,0
1523629849687,655360,86,-56,-1,-1,0
1523629849687,655360,86,-56,-1,-1,0
1523629849727,655360,86,-56,-1,-1,0
1523629849727,589824,86,-56,-1,-1,0
1523629849727,524288,86,-56,-1,-1,0
1523629849727,524288,86,-56,-1,-1,0
1523629849727,589824,86,-56,-1,-1,0
1523629849767,720896,86,-56,-1,-1,0
1523629849767,720896,86,-56,-1,-1,0
1523629849767,589824,86,-56,-1,-1,0
1523629849767,524288,86,-56,-1,-1,0
1523629849767,524288,86,-56,-1,-1,0
1523629849807,589824,86,-56,-1,-1,0
1523629849807,524288,86,-56,-1,-1,0
1523629849807,589824,86,-56,-1,-1,0
1523629849807,589824,86,-56,-1,-1,0
1523629849807,589824,86,-56,-1,-1,0
1523629849847,655360,86,-56,-1,-1,0
1523629849847,720896,86,-56,-1,-1,0
1523629849847,786432,86,-56,-1,-1,0
1523629849847,655360,86,-56,-1,-1,0
1523629849847,524288,86,-56,-1,-1,0
1523629849887,393216,86,-56,-1,-1,0
1523629849887,262144,86,-56,-1,-1,0
1523629849887,393216,86,-56,-1,-1,0
1523629849887,655360,86,-56,-1,-1,0
1523629849887,786432,86,-56,-1,-1,0
1523629849927,917504,86,-56,-1,-1,0
1523629849927,983040,86,-56,-1,-1,0
1523629849927,1048576,86,-56,-1,-1,0
1523629849927,983040,86,-56,-1,-1,0
1523629849927,983040,86,-56,-1,-1,0
1523629849968,1048576,87,-56,-1,-1,0
1523629849968,1114112,87,-56,-1,-1,0
1523629849968,1048576,87,-56,-1,-1,0
1523629849968,1179648,87,-56,-1,-1,0
1523629849968,1245184,87,-56,-1,-1,0
1523629850007,851968,87,-56,-1,-1,0
1523629850007,-589824,87,-56,-1,-1,0
1523629850007,-3735552,87,-56,-1,-1,0
1523629850007,-7405568,87,-56,-1,-1,0
1523629850007,-7274496,87,-56,-1,-1,0
1523629850047,-2818048,87,-56,-1,-1,0
1523629850047,1376256,87,-56,-1,-1,0
1523629850047,2555904,87,-56,-1,-1,0
1523629850047,2228224,87,-56,-1,-1,0
1523629850047,1703936,87,-56,-1,-1,0
1523629850087,1245184,87,-56,-1,-1,0
1523629850087,1179648,87,-56,-1,-1,0
1523629850087,1114112,87,-56,-1,-1,0
1523629850087,786432,87,-56,-1,-1,0
1523629850087,393216,87,-56,-1,-1,0
1523629850127,458752,87,-56,-1,-1,0
1523629850127,589824,87,-56,-1,-1,0
1523629850127,589824,87,-56,-1,-1,0
1523629850127,458752,87,-56,-1,-1,0
1523629850127,262144,87,-56,-1,-1,0
1523629850168,196608,87,-56,-1,-1,0
1523629850168,65536,87,-56,-1,-1,0
1523629850168,-65536,87,-56,-1,-1,0
1523629850168,-262144,87,-56,-1,-1,0
1523629850168,-393216,87,-56,-1,-1,0
1523629850207,-851968,87,-56,-1,-1,0
1523629850207,-1441792,87,-56,-1,-1,0
1523629850207,-1900544,87,-56,-1,-1,0
1523629850207,-2031616,87,-56,-1,-1,0
1523629850207,-2031616,87,-56,-1,-1,0
1523629850247,-1966080,87,-56,-1,-1,0
1523629850247,-1703936,87,-56,-1,-1,0
1523629850247,-1376256,87,-56,-1,-1,0
1523629850247,-917504,87,-56,-1,-1,0
1523629850247,-458752,87,-56,-1,-1,0
1523629850287,0,87,-56,-1,-1,0
1523629850287,262144,87,-56,-1,-1,0
1523629850287,589824,87,-56,-1,-1,0
1523629850287,851968,87,-56,-1,-1,0
1523629850287,983040,87,-56,-1,-1,0
1523629850327,983040,87,-56,-1,-1,0
1523629850327,1048576,87,-56,-1,-1,0
1523629850327,1114112,87,-56,-1,-1,0
1523629850327,1114112,87,-56,-1,-1,0
1523629850327,1179648,87,-56,-1,-1,0
1523629850367,1310720,87,-56,-1,-1,0
1523629850367,1376256,87,-56,-1,-1,0
1523629850367,1310720,87,-56,-1,-1,0
1523629850367,1310720,87,-56,-1,-1,0
1523629850367,1376256,87,-56,-1,-1,0
1523629850407,1441792,87,-56,-1,-1,0
1523629850407,1376256,87,-56,-1,-1,0
1523629850407,1310720,87,-56,-1,-1,0
1523629850407,1245184,87,-56,-1,-1,0
1523629850407,1310720,87,-56,-1,-1,0
1523629850447,1376256,87,-56,-1,-1,0
1523629850447,1376256,87,-56,-1,-1,0
1523629850447,1310720,87,-56,-1,-1,0
1523629850447,1310720,87,-56,-1,-1,0
1523629850447,1310720,87,-56,-1,-1,0
1523629850487,1310720,87,-56,-1,-1,0
1523629850487,1376256,87,-56,-1,-1,0
1523629850487,1441792,87,-56,-1,-1,0
1523629850487,1507328,87,-56,-1,-1,0
1523629850487,1441792,87,-56,-1,-1,0
1523629850527,1376256,87,-56,-1,-1,0
1523629850527,1376256,87,-56,-1,-1,0
1523629850527,1376256,87,-56,-1,-1,0
1523629850527,1310720,87,-56,-1,-1,0
1523629850527,1179648,87,-56,-1,-1,0
1523629850567,1114112,87,-56,-1,-1,0
1523629850567,1114112,87,-56,-1,-1,0
1523629850567,1048576,87,-56,-1,-1,0
1523629850567,1114112,87,-56,-1,-1,0
1523629850567,1310720,87,-56,-1,-1,0
1523629850607,1507328,87,-56,-1,-1,0
1523629850607,1507328,87,-56,-1,-1,0
1523629850607,1441792,87,-56,-1,-1,0
1523629850607,1507328,87,-56,-1,-1,0
1523629850607,1376256,87,-56,-1,-1,0
1523629850647,1245184,87,-56,-1,-1,0
1523629850647,1310720,87,-56,-1,-1,0
1523629850647,1441792,87,-56,-1,-1,0
1523629850647,1507328,87,-56,-1,-1,0
1523629850647,1572864,87,-56,-1,-1,0
1523629850687,1376256,87,-56,-1,-1,0
1523629850687,327680,87,-56,-1,-1,0
1523629850687,-2621440,87,-56,-1,-1,0
1523629850687,-6684672,87,-56,-1,-1,0
1523629850687,-7536640,87,-56,-1,-1,0
1523629850727,-3473408,87,-56,-1,-1,0
1523629850727,1245184,87,-56,-1,-1,0
1523629850727,2949120,87,-56,-1,-1,0
1523629850727,2686976,87,-56,-1,-1,0
1523629850727,2031616,87,-56,-1,-1,0
1523629850767,1572864,87,-56,-1,-1,0
1523629850767,1310720,87,-56,-1,-1,0
1523629850767,1114112,87,-56,-1,-1,0
1523629850767,917504,87,-56,-1,-1,0
1523629850767,851968,87,-56,-1,-1,0
1523629850809,786432,87,-56,-1,-1,0
1523629850809,720896,87,-56,-1,-1,0
1523629850809,589824,87,-56,-1,-1,0
1523629850809,524288,87,-56,-1,-1,0
1523629850809,393216,87,-56,-1,-1,0
1523629850847,262144,87,-56,-1,-1,0
1523629850847,0,87,-56,-1,-1,0
1523629850847,-131072,87,-56,-1,-1,0
1523629850847,-458752,87,-56,-1,-1,0
1523629850847,-655360,87,-56,-1,-1,0
1523629850887,-1048576,87,-56,-1,-1,0
1523629850887,-1376256,87,-56,-1,-1,0
1523629850887,-1703936,87,-56,-1,-1,0
1523629850887,-1966080,87,-56,-1,-1,0
1523629850887,-2162688,87,-56,-1,-1,0
1523629850927,-2162688,87,-56,-1,-1,0
1523629850927,-2097152,87,-56,-1,-1,0
1523629850927,-1769472,87,-56,-1,-1,0
1523629850927,-1376256,87,-56,-1,-1,0
1523629850927,-917504,87,-56,-1,-1,0
1523629850967,-524288,87,-56,-1,-1,0
1523629850967,-196608,87,-56,-1,-1,0
1523629850967,0,87,-56,-1,-1,0
1523629850967,196608,87,-56,-1,-1,0
1523629850967,393216,87,-56,-1,-1,0
1523629851007,524288,87,-56,-1,-1,0
1523629851007,524288,87,-56,-1,-1,0
1523629851007,458752,87,-56,-1,-1,0
1523629851007,458752,87,-56,-1,-1,0
1523629851007,393216,87,-56,-1,-1,0
1523629851047,393216,87,-56,-1,-1,0
1523629851047,327680,87,-56,-1,-1,0
1523629851047,393216,87,-56,-1,-1,0
1523629851047,327680,87,-56,-1,-1,0
1523629851047,262144,87,-56,-1,-1,0
1523629851087,327680,87,-56,-1,-1,0
1523629851087,393216,87,-56,-1,-1,0
1523629851087,393216,87,-56,-1,-1,0
1523629851087,327680,87,-56,-1,-1,0
1523629851087,327680,87,-56,-1,-1,0
1523629851127,262144,87,-56,-1,-1,0
1523629851127,262144,87,-56,-1,-1,0
1523629851127,327680,87,-56,-1,-1,0
1523629851127,327680,87,-56,-1,-1,0
1523629851127,327680,87,-56,-1,-1,0
1523629851167,262144,87,-56,-1,-1,0
1523629851167,196608,87,-56,-1,-1,0
1523629851167,196608,87,-56,-1,-1,0
1523629851167,196608,87,-56,-1,-1,0
1523629851167,262144,87,-56,-1,-1,0
1523629851207,262144,87,-56,-1,-1,0
1523629851207,196608,87,-56,-1,-1,0
1523629851207,131072,87,-56,-1,-1,0
1523629851207,196608,87,-56,-1,-1,0
1523629851207,196608,87,-56,-1,-1,0
1523629851248,262144,87,-56,-1,-1,0
1523629851248,196608,87,-56,-1,-1,0
1523629851248,196608,87,-56,-1,-1,0
1523629851248,65536,87,-56,-1,-1,0
1523629851248,0,87,-56,-1,-1,0
1523629851287,-65536,87,-56,-1,-1,0
1523629851287,0,87,-56,-1,-1,0
1523629851287,0,87,-56,-1,-1,0
1523629851287,65536,87,-56,-1,-1,0
1523629851287,262144,87,-56,-1,-1,0
1523629851327,327680,87,-56,-1,-1,0
1523629851327,458752,87,-56,-1,-1,0
1523629851327,458752,87,-56,-1,-1,0
1523629851327,393216,87,-56,-1,-1,0
1523629851327,393216,87,-56,-1,-1,0
1523629851367,393216,87,-56,-1,-1,0
1523629851367,393216,87,-56,-1,-1,0
1523629851367,327680,87,-56,-1,-1,0
1523629851367,131072,87,-56,-1,-1,0
1523629851367,-1048576,87,-56,-1,-1,0
1523629851407,-4390912,87,-56,-1,-1,0
1523629851407,-8454144,87,-56,-1,-1,0
1523629851407,-8257536,87,-56,-1,-1,0
1523629851407,-3604480,87,-56,-1,-1,0
1523629851407,851968,87,-56,-1,-1,0
1523629851449,2097152,87,-56,-1,-1,0
1523629851449,1769472,87,-56,-1,-1,0
1523629851449,1114112,87,-56,-1,-1,0
1523629851449,524288,87,-56,-1,-1,0
1523629851449,327680,87,-56,-1,-1,0
1523629851487,327680,87,-56,-1,-1,0
1523629851487,262144,87,-56,-1,-1,0
1523629851487,131072,87,-56,-1,-1,0
1523629851487,65536,87,-56,-1,-1,0
1523629851487,0,87,-56,-1,-1,0
1523629851527,-65536,87,-56,-1,-1,0
1523629851527,-131072,87,-56,-1,-1,0
1523629851527,-196608,87,-56,-1,-1,0
1523629851527,-262144,87,-56,-1,-1,0
1523629851527,-458752,87,-56,-1,-1,0
1523629851567,-720896,87,-56,-1,-1,0
1523629851567,-983040,87,-56,-1,-1,0
1523629851567,-1245184,87,-56,-1,-1,0
1523629851567,-1507328,87,-56,-1,-1,0
1523629851567,-1835008,87,-56,-1,-1,0
1523629851607,-2162688,87,-56,-1,-1,0
1523629851607,-2490368,87,-56,-1,-1,0
1523629851607,-2686976,87,-56,-1,-1,0
1523629851607,-2621440,87,-56,-1,-1,0
1523629851607,-2359296,87,-56,-1,-1,0
1523629851647,-2031616,87,-56,-1,-1,0
1523629851647,-1703936,87,-56,-1,-1,0
1523629851647,-1310720,87,-56,-1,-1,0
1523629851647,-917504,87,-56,-1,-1,0
1523629851647,-524288,87,-56,-1,-1,0
1523629851687,-262144,87,-56,-1,-1,0
1523629851687,0,87,-56,-1,-1,0
1523629851687,65536,87,-56,-1,-1,0
1523629851687,131072,87,-56,-1,-1,0
1523629851687,131072,87,-56,-1,-1,0
1523629851727,196608,87,-56,-1,-1,0
1523629851727,262144,87,-56,-1,-1,0
1523629851727,262144,87,-56,-1,-1,0
1523629851727,196608,87,-56,-1,-1,0
1523629851727,196608,87,-56,-1,-1,0
1523629851767,262144,87,-56,-1,-1,0
1523629851767,262144,87,-56,-1,-1,0
1523629851767,327680,87,-56,-1,-1,0
1523629851767,393216,87,-56,-1,-1,0
1523629851767,327680,87,-56,-1,-1,0
1523629851807,262144,87,-56,-1,-1,0
1523629851807,262144,87,-56,-1,-1,0
1523629851807,327680,87,-56,-1,-1,0
1523629851807,393216,87,-56,-1,-1,0
1523629851807,393216,87,-56,-1,-1,0
1523629851847,393216,87,-56,-1,-1,0
1523629851847,393216,87,-56,-1,-1,0
1523629851847,393216,87,-56,-1,-1,0
1523629851847,327680,87,-56,-1,-1,0
1523629851847,196608,87,-56,-1,-1,0
1523629851887,196608,87,-56,-1,-1,0
1523629851887,262144,87,-56,-1,-1,0
1523629851887,262144,87,-56,-1,-1,0
1523629851887,262144,87,-56,-1,-1,0
1523629851887,327680,87,-56,-1,-1,0
1523629851927,327680,87,-56,-1,-1,0
1523629851927,327680,87,-56,-1,-1,0
1523629851927,262144,87,-56,-1,-1,0
1523629851927,393216,87,-56,-1,-1,0
1523629851927,393216,87,-56,-1,-1,0
1523629851967,196608,87,-56,-1,-1,0
1523629851967,65536,87,-56,-1,-1,0
1523629851967,0,87,-56,-1,-1,0
1523629851967,0,87,-56,-1,-1,0
1523629851967,131072,87,-56,-1,-1,0
1523629852007,262144,87,-56,-1,-1,0
1523629852007,262144,87,-56,-1,-1,0
1523629852007,196608,87,-56,-1,-1,0
1523629852007,262144,87,-56,-1,-1,0
1523629852007,327680,87,-56,-1,-1,0
1523629852049,327680,87,-56,-1,-1,0
1523629852049,327680,87,-56,-1,-1,0
1523629852049,327680,87,-56,-1,-1,0
1523629852049,393216,87,-56,-1,-1,0
1523629852049,458752,87,-56,-1,-1,0
1523629852087,458752,87,-56,-1,-1,0
1523629852087,327680,87,-56,-1,-1,0
1523629852087,-458752,87,-56,-1,-1,0
1523629852087,-3211264,87,-56,-1,-1,0
1523629852087,-7077888,87,-56,-1,-1,0
1523629852127,-7995392,87,-56,-1,-1,0
1523629852127,-4259840,87,-56,-1,-1,0
1523629852127,393216,87,-56,-1,-1,0
1523629852127,2097152,87,-56,-1,-1,0
1523629852127,1638400,87,-56,-1,-1,0
1523629852170,983040,87,-56,-1,-1,0
1523629852170,458752,87,-56,-1,-1,0
1523629852170,262144,87,-56,-1,-1,0
1523629852170,262144,87,-56,-1,-1,0
1523629852170,262144,87,-56,-1,-1,0
1523629852207,196608,87,-56,-1,-1,0
1523629852207,131072,87,-56,-1,-1,0
1523629852207,0,87,-56,-1,-1,0
1523629852207,-65536,87,-56,-1,-1,0
1523629852207,-131072,87,-56,-1,-1,0
1523629852247,-196608,87,-56,-1,-1,0
1523629852247,-262144,87,-56,-1,-1,0
1523629852247,-458752,87,-56,-1,-1,0
1523629852247,-720896,87,-56,-1,-1,0
1523629852247,-917504,87,-56,-1,-1,0
1523629852287,-1245184,87,-56,-1,-1,0
1523629852287,-1638400,87,-56,-1,-1,0
1523629852287,-2031616,87,-56,-1,-1,0
1523629852287,-2424832,87,-56,-1,-1,0
1523629852287,-2686976,87,-56,-1,-1,0
1523629852327,-2818048,87,-56,-1,-1,0
1523629852327,-2818048,87,-56,-1,-1,0
1523629852327,-2752512,87,-56,-1,-1,0
1523629852327,-2490368,87,-56,-1,-1,0
1523629852327,-2031616,87,-56,-1,-1,0
1523629852367,-1507328,87,-56,-1,-1,0
1523629852367,-983040,87,-56,-1,-1,0
1523629852367,-524288,87,-56,-1,-1,0
1523629852367,-131072,87,-56,-1,-1,0
1523629852367,65536,87,-56,-1,-1,0
1523629852407,262144,87,-56,-1,-1,0
1523629852407,393216,87,-56,-1,-1,0
1523629852407,458752,87,-56,-1,-1,0
1523629852407,524288,87,-56,-1,-1,0
1523629852407,524288,87,-56,-1,-1,0
1523629852447,524288,87,-56,-1,-1,0
1523629852447,589824,87,-56,-1,-1,0
1523629852447,655360,87,-56,-1,-1,0
1523629852447,655360,87,-56,-1,-1,0
1523629852447,655360,87,-56,-1,-1,0
1523629852487,720896,87,-56,-1,-1,0
1523629852487,720896,87,-56,-1,-1,0
1523629852487,786432,87,-56,-1,-1,0
1523629852487,786432,87,-56,-1,-1,0
1523629852487,786432,87,-56,-1,-1,0
1523629852527,851968,87,-56,-1,-1,0
1523629852527,786432,87,-56,-1,-1,0
1523629852527,655360,87,-56,-1,-1,0
1523629852527,458752,87,-56,-1,-1,0
1523629852527,458752,87,-56,-1,-1,0
1523629852567,524288,87,-56,-1,-1,0
1523629852567,524288,87,-56,-1,-1,0
1523629852567,458752,87,-56,-1,-1,0
1523629852567,458752,87,-56,-1,-1,0
1523629852567,524288,87,-56,-1,-1,0
1523629852607,589824,87,-56,-1,-1,0
1523629852607,589824,87,-56,-1,-1,0
1523629852607,589824,87,-56,-1,-1,0
1523629852607,524288,87,-56,-1,-1,0
1523629852607,393216,87,-56,-1,-1,0
1523629852647,262144,87,-56,-1,-1,0
1523629852647,262144,87,-56,-1,-1,0
1523629852647,327680,87,-56,-1,-1,0
1523629852647,458752,87,-56,-1,-1,0
1523629852647,589824,87,-56,-1,-1,0
1523629852687,655360,87,-56,-1,-1,0
1523629852687,655360,87,-56,-1,-1,0
1523629852687,786432,87,-56,-1,-1,0
1523629852687,851968,87,-56,-1,-1,0
1523629852687,786432,87,-56,-1,-1,0
1523629852728,720896,88,-56,-1,-1,0
1523629852728,655360,88,-56,-1,-1,0
1523629852728,720896,88,-56,-1,-1,0
1523629852728,720896,88,-56,-1,-1,0
1523629852728,589824,88,-56,-1,-1,0
1523629852767,131072,88,-56,-1,-1,0
1523629852767,-1703936,88,-56,-1,-1,0
1523629852767,-5111808,88,-56,-1,-1,0
1523629852767,-6946816,88,-56,-1,-1,0
1523629852767,-4390912,88,-56,-1,-1,0
1523629852807,0,88,-56,-1,-1,0
1523629852807,2162688,88,-56,-1,-1,0
1523629852807,2162688,88,-56,-1,-1,0
1523629852807,1572864,88,-56,-1,-1,0
1523629852807,1048576,88,-56,-1,-1,0
1523629852847,720896,88,-56,-1,-1,0
1523629852847,655360,88,-56,-1,-1,0
1523629852847,589824,88,-56,-1,-1,0
1523629852847,524288,88,-56,-1,-1,0
1523629852847,458752,88,-56,-1,-1,0
1523629852887,327680,88,-56,-1,-1,0
1523629852887,196608,88,-56,-1,-1,0
1523629852887,131072,88,-56,-1,-1,0
1523629852887,65536,88,-56,-1,-1,0
1523629852887,0,88,-56,-1,-1,0
1523629852927,-65536,88,-56,-1,-1,0
1523629852927,-327680,88,-56,-1,-1,0
1523629852927,-589824,88,-56,-1,-1,0
1523629852927,-851968,88,-56,-1,-1,0
1523629852927,-1179648,88,-56,-1,-1,0
1523629852967,-1507328,88,-56,-1,-1,0
1523629852967,-1835008,88,-56,-1,-1,0
1523629852967,-2031616,88,-56,-1,-1,0
1523629852967,-2162688,88,-56,-1,-1,0
1523629852967,-2097152,88,-56,-1,-1,0
1523629853007,-1966080,88,-56,-1,-1,0
1523629853007,-1835008,88,-56,-1,-1,0
1523629853007,-1507328,88,-56,-1,-1,0
1523629853007,-1048576,88,-56,-1,-1,0
1523629853007,-589824,88,-56,-1,-1,0
1523629853047,-196608,88,-56,-1,-1,0
1523629853047,65536,88,-56,-1,-1,0
1523629853047,327680,88,-56,-1,-1,0
1523629853047,524288,88,-56,-1,-1,0
1523629853047,655360,88,-56,-1,-1,0
1523629853087,720896,88,-56,-1,-1,0
1523629853087,786432,88,-56,-1,-1,0
1523629853087,786432,88,-56,-1,-1,0
1523629853087,851968,88,-56,-1,-1,0
1523629853087,851968,88,-56,-1,-1,0
1523629853127,851968,88,-56,-1,-1,0
1523629853127,851968,88,-56,-1,-1,0
1523629853127,851968,88,-56,-1,-1,0
1523629853127,917504,88,-56,-1,-1,0
1523629853127,917504,88,-56,-1,-1,0
1523629853167,851968,88,-56,-1,-1,0
1523629853167,851968,88,-56,-1,-1,0
1523629853167,851968,88,-56,-1,-1,0
1523629853167,851968,88,-56,-1,-1,0
1523629853167,786432,88,-56,-1,-1,0
1523629853207,786432,88,-56,-1,-1,0
1523629853207,720896,88,-56,-1,-1,0
1523629853207,655360,88,-56,-1,-1,0
1523629853207,589824,88,-56,-1,-1,0
1523629853207,589824,88,-56,-1,-1,0
1523629853247,589824,88,-56,-1,-1,0
1523629853247,655360,88,-56,-1,-1,0
1523629853247,655360,88,-56,-1,-1,0
1523629853247,655360,88,-56,-1,-1,0
1523629853247,720896,88,-56,-1,-1,0
1523629853287,786432,88,-56,-1,-1,0
1523629853287,786432,88,-56,-1,-1,0
1523629853287,720896,88,-56,-1,-1,0
1523629853287,589824,88,-56,-1,-1,0
1523629853287,524288,88,-56,-1,-1,0
1523629853327,524288,88,-56,-1,-1,0
1523629853327,589824,88,-56,-1,-1,0
1523629853327,655360,88,-56,-1,-1,0
1523629853327,720896,88,-56,-1,-1,0
1523629853327,720896,88,-56,-1,-1,0
1523629853370,786432,88,-56,-1,-1,0
1523629853370,851968,88,-56,-1,-1,0
1523629853370,917504,88,-56,-1,-1,0
1523629853370,917504,88,-56,-1,-1,0
1523629853370,983040,88,-56,-1,-1,0
1523629853407,983040,88,-56,-1,-1,0
1523629853407,983040,88,-56,-1,-1,0
1523629853407,983040,88,-56,-1,-1,0
1523629853407,983040,88,-56,-1,-1,0
1523629853407,720896,88,-56,-1,-1,0
1523629853447,-458752,88,-56,-1,-1,0
1523629853447,-3538944,88,-56,-1,-1,0
1523629853447,-6946816,88,-56,-1,-1,0
1523629853447,-6553600,88,-56,-1,-1,0
1523629853447,-2228224,88,-56,-1,-1,0
1523629853487,1572864,88,-56,-1,-1,0
1523629853487,2490368,88,-56,-1,-1,0
1523629853487,2031616,88,-56,-1,-1,0
1523629853487,1507328,88,-56,-1,-1,0
1523629853487,1114112,88,-56,-1,-1,0
1523629853527,983040,88,-56,-1,-1,0
1523629853527,851968,88,-56,-1,-1,0
1523629853527,720896,88,-56,-1,-1,0
1523629853527,655360,88,-56,-1,-1,0
1523629853527,589824,88,-56,-1,-1,0
1523629853567,524288,88,-56,-1,-1,0
1523629853567,458752,88,-56,-1,-1,0
1523629853567,327680,88,-56,-1,-1,0
1523629853567,327680,88,-56,-1,-1,0
1523629853567,131072,88,-56,-1,-1,0
1523629853607,-65536,88,-56,-1,-1,0
1523629853607,-262144,88,-56,-1,-1,0
1523629853607,-458752,88,-56,-1,-1,0
1523629853607,-720896,88,-56,-1,-1,0
1523629853607,-1114112,88,-56,-1,-1,0
1523629853647,-1441792,88,-56,-1,-1,0
1523629853647,-1769472,88,-56,-1,-1,0
1523629853647,-1900544,88,-56,-1,-1,0
1523629853647,-2031616,88,-56,-1,-1,0
1523629853647,-2031616,88,-56,-1,-1,0
1523629853687,-1900544,88,-56,-1,-1,0
1523629853687,-1572864,88,-56,-1,-1,0
1523629853687,-1114112,88,-56,-1,-1,0
1523629853687,-589824,88,-56,-1,-1,0
1523629853687,-196608,88,-56,-1,-1,0
1523629853727,65536,88,-56,-1,-1,0
1523629853727,327680,88,-56,-1,-1,0
1523629853727,524288,88,-56,-1,-1,0
1523629853727,655360,88,-56,-1,-1,0
1523629853727,655360,88,-56,-1,-1,0
1523629853767,720896,88,-56,-1,-1,0
1523629853767,720896,88,-56,-1,-1,0
1523629853767,786432,88,-56,-1,-1,0
1523629853767,786432,88,-56,-1,-1,0
1523629853767,851968,88,-56,-1,-1,0
1523629853807,917504,88,-56,-1,-1,0
1523629853807,983040,88,-56,-1,-1,0
1523629853807,983040,88,-56,-1,-1,0
1523629853807,917504,88,-56,-1,-1,0
1523629853807,917504,88,-56,-1,-1,0
1523629853847,983040,88,-56,-1,-1,0
1523629853847,983040,88,-56,-1,-1,0
1523629853847,983040,88,-56,-1,-1,0
1523629853847,851968,88,-56,-1,-1,0
1523629853847,786432,88,-56,-1,-1,0
1523629853887,720896,88,-56,-1,-1,0
1523629853887,786432,88,-56,-1,-1,0
1523629853887,851968,88,-56,-1,-1,0
1523629853887,786432,88,-56,-1,-1,0
1523629853887,720896,88,-56,-1,-1,0
1523629853927,720896,88,-56,-1,-1,0
1523629853927,720896,88,-56,-1,-1,0
1523629853927,720896,88,-56,-1,-1,0
1523629853927,720896,88,-56,-1,-1,0
1523629853927,786432,88,-56,-1,-1,0
1523629853967,917504,88,-56,-1,-1,0
1523629853967,851968,88,-56,-1,-1,0
1523629853967,720896,88,-56,-1,-1,0
1523629853967,524288,88,-56,-1,-1,0
1523629853967,458752,88,-56,-1,-1,0
1523629854008,458752,88,-56,-1,-1,0
1523629854008,524288,88,-56,-1,-1,0
1523629854008,655360,88,-56,-1,-1,0
1523629854008,720896,88,-56,-1,-1,0
1523629854008,720896,88,-56,-1,-1,0
1523629854047,786432,88,-56,-1,-1,0
1523629854047,786432,88,-56,-1,-1,0
1523629854047,786432,88,-56,-1,-1,0
1523629854047,851968,88,-56,-1,-1,0
1523629854047,851968,88,-56,-1,-1,0
1523629854087,917504,88,-56,-1,-1,0
1523629854087,851968,88,-56,-1,-1,0
1523629854087,851968,88,-56,-1,-1,0
1523629854087,917504,88,-56,-1,-1,0
1523629854087,589824,88,-56,-1,-1,0
1523629854127,-917504,88,-56,-1,-1,0
1523629854127,-4390912,88,-56,-1,-1,0
1523629854127,-7798784,88,-56,-1,-1,0
1523629854127,-6815744,88,-56,-1,-1,0
1523629854127,-2162688,88,-56,-1,-1,0
1523629854167,1441792,88,-56,-1,-1,0
1523629854167,2097152,88,-56,-1,-1,0
1523629854167,1703936,88,-56,-1,-1,0
1523629854167,1310720,88,-56,-1,-1,0
1523629854167,983040,88,-56,-1,-1,0
1523629854207,851968,88,-56,-1,-1,0
1523629854207,655360,88,-56,-1,-1,0
1523629854207,589824,88,-56,-1,-1,0
1523629854207,458752,88,-56,-1,-1,0
1523629854207,393216,88,-56,-1,-1,0
1523629854247,327680,88,-56,-1,-1,0
1523629854247,327680,88,-56,-1,-1,0
1523629854247,262144,88,-56,-1,-1,0
1523629854247,65536,88,-56,-1,-1,0
1523629854247,-65536,88,-56,-1,-1,0
1523629854287,-327680,88,-56,-1,-1,0
1523629854287,-458752,88,-56,-1,-1,0
1523629854287,-720896,88,-56,-1,-1,0
1523629854287,-1048576,88,-56,-1,-1,0
1523629854287,-1376256,88,-56,-1,-1,0
1523629854327,-1638400,88,-56,-1,-1,0
1523629854327,-1966080,88,-56,-1,-1,0
1523629854327,-2162688,88,-56,-1,-1,0
1523629854327,-2293760,88,-56,-1,-1,0
1523629854327,-2228224,88,-56,-1,-1,0
1523629854367,-2031616,88,-56,-1,-1,0
1523629854367,-1638400,88,-56,-1,-1,0
1523629854367,-1179648,88,-56,-1,-1,0
1523629854367,-720896,88,-56,-1,-1,0
1523629854367,-327680,88,-56,-1,-1,0
1523629854407,-65536,88,-56,-1,-1,0
1523629854407,196608,88,-56,-1,-1,0
1523629854407,524288,88,-56,-1,-1,0
1523629854407,655360,88,-56,-1,-1,0
1523629854407,655360,88,-56,-1,-1,0
1523629854447,655360,88,-56,-1,-1,0
1523629854447,720896,88,-56,-1,-1,0
1523629854447,851968,88,-56,-1,-1,0
1523629854447,786432,88,-56,-1,-1,0
1523629854447,786432,88,-56,-1,-1,0
1523629854487,851968,88,-56,-1,-1,0
1523629854487,851968,88,-56,-1,-1,0
1523629854487,851968,88,-56,-1,-1,0
1523629854487,917504,88,-56,-1,-1,0
1523629854487,917504,88,-56,-1,-1,0
1523629854527,851968,88,-56,-1,-1,0
1523629854527,851968,88,-56,-1,-1,0
1523629854527,786432,88,-56,-1,-1,0
1523629854527,786432,88,-56,-1,-1,0
1523629854527,786432,88,-56,-1,-1,0
1523629854567,786432,88,-56,-1,-1,0
1523629854567,720896,88,-56,-1,-1,0
1523629854567,720896,88,-56,-1,-1,0
1523629854567,655360,88,-56,-1,-1,0
1523629854567,655360,88,-56,-1,-1,0
1523629854607,589824,88,-56,-1,-1,0
1523629854607,589824,88,-56,-1,-1,0
1523629854607,589824,88,-56,-1,-1,0
1523629854607,655360,88,-56,-1,-1,0
1523629854607,720896,88,-56,-1,-1,0
1523629854648,786432,88,-56,-1,-1,0
1523629854648,720896,88,-56,-1,-1,0
1523629854648,655360,88,-56,-1,-1,0
1523629854648,655360,88,-56,-1,-1,0
1523629854648,655360,88,-56,-1,-1,0
1523629854687,589824,88,-56,-1,-1,0
1523629854687,524288,88,-56,-1,-1,0
1523629854687,393216,88,-56,-1,-1,0
1523629854687,327680,88,-56,-1,-1,0
1523629854687,393216,88,-56,-1,-1,0
1523629854727,458752,88,-56,-1,-1,0
1523629854727,589824,88,-56,-1,-1,0
1523629854727,720896,88,-56,-1,-1,0
1523629854727,720896,88,-56,-1,-1,0
1523629854727,655360,88,-56,-1,-1,0
1523629854767,720896,88,-56,-1,-1,0
1523629854767,786432,88,-56,-1,-1,0
1523629854767,786432,88,-56,-1,-1,0
1523629854767,720896,88,-56,-1,-1,0
1523629854767,720896,88,-56,-1,-1,0
1523629854807,720896,88,-56,-1,-1,0
1523629854807,720896,88,-56,-1,-1,0
1523629854807,786432,88,-56,-1,-1,0
1523629854807,0,88,-56,-1,-1,0
1523629854807,-2752512,88,-56,-1,-1,0
1523629854847,-6815744,88,-56,-1,-1,0
1523629854847,-7929856,88,-56,-1,-1,0
1523629854847,-4259840,88,-56,-1,-1,0
1523629854847,327680,88,-56,-1,-1,0
1523629854847,2097152,88,-56,-1,-1,0
1523629854887,1835008,88,-56,-1,-1,0
1523629854887,1310720,88,-56,-1,-1,0
1523629854887,1048576,88,-56,-1,-1,0
1523629854887,851968,88,-56,-1,-1,0
1523629854887,720896,88,-56,-1,-1,0
1523629854927,524288,88,-56,-1,-1,0
1523629854927,393216,88,-56,-1,-1,0
1523629854927,327680,88,-56,-1,-1,0
1523629854927,196608,88,-56,-1,-1,0
1523629854927,131072,88,-56,-1,-1,0
1523629854967,65536,88,-56,-1,-1,0
1523629854967,0,88,-56,-1,-1,0
1523629854967,-65536,88,-56,-1,-1,0
1523629854967,-327680,88,-56,-1,-1,0
1523629854967,-458752,88,-56,-1,-1,0
1523629855007,-720896,88,-56,-1,-1,0
1523629855007,-1048576,88,-56,-1,-1,0
1523629855007,-1376256,88,-56,-1,-1,0
1523629855007,-1703936,88,-56,-1,-1,0
1523629855007,-2031616,88,-56,-1,-1,0
1523629855047,-2293760,88,-56,-1,-1,0
1523629855047,-2424832,88,-56,-1,-1,0
1523629855047,-2490368,88,-56,-1,-1,0
1523629855047,-2490368,88,-56,-1,-1,0
1523629855047,-2293760,88,-56,-1,-1,0
1523629855087,-1966080,88,-56,-1,-1,0
1523629855087,-1507328,88,-56,-1,-1,0
1523629855087,-1048576,88,-56,-1,-1,0
1523629855087,-655360,88,-56,-1,-1,0
1523629855087,-393216,88,-56,-1,-1,0
1523629855127,-131072,88,-56,-1,-1,0
1523629855127,0,88,-56,-1,-1,0
1523629855127,131072,88,-56,-1,-1,0
1523629855127,196608,88,-56,-1,-1,0
1523629855127,327680,88,-56,-1,-1,0
1523629855167,393216,88,-56,-1,-1,0
1523629855167,393216,88,-56,-1,-1,0
1523629855167,524288,88,-56,-1,-1,0
1523629855167,524288,88,-56,-1,-1,0
1523629855167,393216,88,-56,-1,-1,0
1523629855207,327680,88,-56,-1,-1,0
1523629855207,393216,88,-56,-1,-1,0
1523629855207,458752,88,-56,-1,-1,0
1523629855207,458752,88,-56,-1,-1,0
1523629855207,458752,88,-56,-1,-1,0
1523629855247,524288,88,-56,-1,-1,0
1523629855247,589824,88,-56,-1,-1,0
1523629855247,589824,88,-56,-1,-1,0
1523629855247,524288,88,-56,-1,-1,0
1523629855247,393216,88,-56,-1,-1,0
1523629855288,393216,88,-56,-1,-1,0
1523629855288,458752,88,-56,-1,-1,0
1523629855288,589824,88,-56,-1,-1,0
1523629855288,589824,88,-56,-1,-1,0
1523629855288,524288,88,-56,-1,-1,0
1523629855327,524288,88,-56,-1,-1,0
1523629855327,589824,88,-56,-1,-1,0
1523629855327,655360,88,-56,-1,-1,0
1523629855327,655360,88,-56,-1,-1,0
1523629855327,589824,88,-56,-1,-1,0
1523629855367,589824,88,-56,-1,-1,0
1523629855367,655360,88,-56,-1,-1,0
1523629855367,720896,88,-56,-1,-1,0
1523629855367,786432,88,-56,-1,-1,0
1523629855367,786432,88,-56,-1,-1,0
1523629855407,655360,88,-56,-1,-1,0
1523629855407,458752,88,-56,-1,-1,0
1523629855407,393216,88,-56,-1,-1,0
1523629855407,458752,88,-56,-1,-1,0
1523629855407,524288,88,-56,-1,-1,0
1523629855447,589824,88,-56,-1,-1,0
1523629855447,655360,88,-56,-1,-1,0
1523629855447,655360,88,-56,-1,-1,0
1523629855447,720896,88,-56,-1,-1,0
1523629855447,720896,88,-56,-1,-1,0
1523629855487,720896,88,-56,-1,-1,0
1523629855487,720896,88,-56,-1,-1,0
1523629855487,786432,88,-56,-1,-1,0
1523629855487,851968,88,-56,-1,-1,0
1523629855487,786432,88,-56,-1,-1,0
1523629855527,786432,88,-56,-1,-1,0
1523629855527,655360,88,-56,-1,-1,0
1523629855527,262144,88,-56,-1,-1,0
1523629855527,-1114112,88,-56,-1,-1,0
1523629855527,-4259840,88,-56,-1,-1,0
1523629855567,-6881280,88,-56,-1,-1,0
1523629855567,-5242880,88,-56,-1,-1,0
1523629855567,-655360,88,-56,-1,-1,0
1523629855567,2359296,88,-56,-1,-1,0
1523629855567,2555904,88,-56,-1,-1,0
1523629855607,1966080,88,-56,-1,-1,0
1523629855607,1376256,88,-56,-1,-1,0
1523629855607,851968,88,-56,-1,-1,0
1523629855607,589824,88,-56,-1,-1,0
1523629855607,458752,88,-56,-1,-1,0
1523629855647,327680,88,-56,-1,-1,0
1523629855647,262144,88,-56,-1,-1,0
1523629855647,196608,88,-56,-1,-1,0
1523629855647,131072,88,-56,-1,-1,0
1523629855647,65536,88,-56,-1,-1,0
1523629855687,0,88,-56,-1,-1,0
1523629855687,-196608,88,-56,-1,-1,0
1523629855687,-458752,88,-56,-1,-1,0
1523629855687,-720896,88,-56,-1,-1,0
1523629855687,-917504,88,-56,-1,-1,0
1523629855727,-1245184,88,-56,-1,-1,0
1523629855727,-1507328,88,-56,-1,-1,0
1523629855727,-1769472,88,-56,-1,-1,0
1523629855727,-2031616,88,-56,-1,-1,0
1523629855727,-2424832,88,-56,-1,-1,0
1523629855767,-2818048,88,-56,-1,-1,0
1523629855767,-2949120,88,-56,-1,-1,0
1523629855767,-2949120,88,-56,-1,-1,0
1523629855767,-2818048,88,-56,-1,-1,0
1523629855767,-2424832,88,-56,-1,-1,0
1523629855807,-1900544,88,-56,-1,-1,0
1523629855807,-1310720,88,-56,-1,-1,0
1523629855807,-786432,88,-56,-1,-1,0
1523629855807,-393216,88,-56,-1,-1,0
1523629855807,-131072,88,-56,-1,-1,0
1523629855847,0,88,-56,-1,-1,0
1523629855847,196608,88,-56,-1,-1,0
1523629855847,327680,88,-56,-1,-1,0
1523629855847,393216,88,-56,-1,-1,0
1523629855847,393216,88,-56,-1,-1,0
1523629855887,393216,88,-56,-1,-1,0
1523629855887,458752,88,-56,-1,-1,0
1523629855887,524288,88,-56,-1,-1,0
1523629855887,589824,88,-56,-1,-1,0
1523629855887,589824,88,-56,-1,-1,0
1523629855928,589824,88,-56,-1,-1,0
1523629855928,589824,88,-56,-1,-1,0
1523629855928,589824,88,-56,-1,-1,0
1523629855928,655360,88,-56,-1,-1,0
1523629855928,655360,88,-56,-1,-1,0
1523629855967,589824,88,-56,-1,-1,0
1523629855967,524288,88,-56,-1,-1,0
1523629855967,393216,88,-56,-1,-1,0
1523629855967,393216,88,-56,-1,-1,0
1523629855967,393216,88,-56,-1,-1,0
1523629856007,393216,88,-56,-1,-1,0
1523629856007,458752,88,-56,-1,-1,0
1523629856007,458752,88,-56,-1,-1,0
1523629856007,393216,88,-56,-1,-1,0
1523629856007,393216,88,-56,-1,-1,0
1523629856047,524288,88,-56,-1,-1,0
1523629856047,524288,88,-56,-1,-1,0
1523629856047,393216,88,-56,-1,-1,0
1523629856047,393216,88,-56,-1,-1,0
1523629856047,393216,88,-56,-1,-1,0
1523629856087,458752,88,-56,-1,-1,0
1523629856087,393216,88,-56,-1,-1,0
1523629856087,262144,88,-56,-1,-1,0
1523629856087,196608,88,-56,-1,-1,0
1523629856087,131072,88,-56,-1,-1,0
1523629856127,196608,88,-56,-1,-1,0
1523629856127,327680,88,-56,-1,-1,0
1523629856127,524288,88,-56,-1,-1,0
1523629856127,589824,88,-56,-1,-1,0
1523629856127,524288,88,-56,-1,-1,0
1523629856167,524288,88,-56,-1,-1,0
1523629856167,524288,88,-56,-1,-1,0
1523629856167,589824,88,-56,-1,-1,0
1523629856167,589824,88,-56,-1,-1,0
1523629856167,589824,88,-56,-1,-1,0
1523629856207,589824,88,-56,-1,-1,0
1523629856207,589824,88,-56,-1,-1,0
1523629856207,589824,88,-56,-1,-1,0
1523629856207,327680,88,-56,-1,-1,0
1523629856207,-917504,88,-56,-1,-1,0
1523629856247,-3866624,88,-56,-1,-1,0
1523629856247,-6881280,88,-56,-1,-1,0
1523629856247,-6094848,88,-56,-1,-1,0
1523629856247,-1966080,88,-56,-1,-1,0
1523629856247,1376256,88,-56,-1,-1,0
1523629856287,2097152,88,-56,-1,-1,0
1523629856287,1638400,88,-56,-1,-1,0
1523629856287,1179648,88,-56,-1,-1,0
1523629856287,786432,88,-56,-1,-1,0
1523629856287,524288,88,-56,-1,-1,0
1523629856327,327680,88,-56,-1,-1,0
1523629856327,262144,88,-56,-1,-1,0
1523629856327,262144,88,-56,-1,-1,0
1523629856327,196608,88,-56,-1,-1,0
1523629856327,65536,88,-56,-1,-1,0
1523629856367,0,88,-56,-1,-1,0
1523629856367,-65536,88,-56,-1,-1,0
1523629856367,-131072,88,-56,-1,-1,0
1523629856367,-262144,88,-56,-1,-1,0
1523629856367,-458752,88,-56,-1,-1,0
1523629856408,-655360,88,-56,-1,-1,0
1523629856408,-917504,88,-56,-1,-1,0
1523629856408,-1245184,88,-56,-1,-1,0
1523629856408,-1572864,88,-56,-1,-1,0
1523629856408,-1835008,88,-56,-1,-1,0
1523629856447,-2031616,88,-56,-1,-1,0
1523629856447,-2293760,88,-56,-1,-1,0
1523629856447,-2424832,88,-56,-1,-1,0
1523629856447,-2490368,88,-56,-1,-1,0
1523629856447,-2293760,88,-56,-1,-1,0
1523629856487,-1900544,88,-56,-1,-1,0
1523629856487,-1507328,88,-56,-1,-1,0
1523629856487,-1048576,88,-56,-1,-1,0
1523629856487,-589824,88,-56,-1,-1,0
1523629856487,-196608,88,-56,-1,-1,0
1523629856527,0,88,-56,-1,-1,0
1523629856527,262144,88,-56,-1,-1,0
1523629856527,458752,88,-56,-1,-1,0
1523629856527,393216,88,-56,-1,-1,0
1523629856527,393216,88,-56,-1,-1,0
1523629856568,393216,88,-56,-1,-1,0
1523629856568,458752,88,-56,-1,-1,0
1523629856568,524288,88,-56,-1,-1,0
1523629856568,524288,88,-56,-1,-1,0
1523629856568,655360,88,-56,-1,-1,0
1523629856607,655360,88,-56,-1,-1,0
1523629856607,655360,88,-56,-1,-1,0
1523629856607,655360,88,-56,-1,-1,0
1523629856607,655360,88,-56,-1,-1,0
1523629856607,655360,88,-56,-1,-1,0
1523629856647,720896,88,-56,-1,-1,0
1523629856647,720896,88,-56,-1,-1,0
1523629856647,720896,88,-56,-1,-1,0
1523629856647,524288,88,-56,-1,-1,0
1523629856647,458752,88,-56,-1,-1,0
1523629856687,458752,88,-56,-1,-1,0
1523629856687,524288,88,-56,-1,-1,0
1523629856687,589824,88,-56,-1,-1,0
1523629856687,458752,88,-56,-1,-1,0
1523629856687,393216,88,-56,-1,-1,0
1523629856727,458752,88,-56,-1,-1,0
1523629856727,524288,88,-56,-1,-1,0
1523629856727,524288,88,-56,-1,-1,0
1523629856727,589824,88,-56,-1,-1,0
1523629856727,589824,88,-56,-1,-1,0
1523629856767,589824,88,-56,-1,-1,0
1523629856767,589824,88,-56,-1,-1,0
1523629856767,589824,88,-56,-1,-1,0
1523629856767,655360,88,-56,-1,-1,0
1523629856767,589824,88,-56,-1,-1,0
1523629856807,458752,88,-56,-1,-1,0
1523629856807,327680,88,-56,-1,-1,0
1523629856807,262144,88,-56,-1,-1,0
1523629856807,262144,88,-56,-1,-1,0
1523629856807,393216,88,-56,-1,-1,0
1523629856847,589824,88,-56,-1,-1,0
1523629856847,655360,88,-56,-1,-1,0
1523629856847,655360,88,-56,-1,-1,0
1523629856847,720896,88,-56,-1,-1,0
1523629856847,720896,88,-56,-1,-1,0
1523629856887,655360,88,-56,-1,-1,0
1523629856887,655360,88,-56,-1,-1,0
1523629856887,720896,88,-56,-1,-1,0
1523629856887,720896,88,-56,-1,-1,0
1523629856887,720896,88,-56,-1,-1,0
1523629856927,655360,88,-56,-1,-1,0
1523629856927,262144,88,-56,-1,-1,0
1523629856927,-1245184,88,-56,-1,-1,0
1523629856927,-4521984,88,-56,-1,-1,0
1523629856927,-7274496,88,-56,-1,-1,0
1523629856967,-5832704,88,-56,-1,-1,0
1523629856967,-1376256,88,-56,-1,-1,0
1523629856967,1507328,88,-56,-1,-1,0
1523629856967,1900544,88,-56,-1,-1,0
1523629856967,1507328,88,-56,-1,-1,0
1523629857007,1048576,88,-56,-1,-1,0
1523629857007,786432,88,-56,-1,-1,0
1523629857007,655360,88,-56,-1,-1,0
1523629857007,589824,88,-56,-1,-1,0
1523629857007,393216,88,-56,-1,-1,0
1523629857047,262144,88,-56,-1,-1,0
1523629857047,196608,88,-56,-1,-1,0
1523629857047,131072,88,-56,-1,-1,0
1523629857047,65536,88,-56,-1,-1,0
1523629857047,0,88,-56,-1,-1,0
1523629857087,0,88,-56,-1,-1,0
1523629857087,-131072,88,-56,-1,-1,0
1523629857087,-262144,88,-56,-1,-1,0
1523629857087,-393216,88,-56,-1,-1,0
1523629857087,-655360,88,-56,-1,-1,0
1523629857127,-983040,88,-56,-1,-1,0
1523629857127,-1310720,88,-56,-1,-1,0
1523629857127,-1638400,88,-56,-1,-1,0
1523629857127,-1900544,88,-56,-1,-1,0
1523629857127,-2097152,88,-56,-1,-1,0
1523629857167,-2228224,88,-56,-1,-1,0
1523629857167,-2162688,88,-56,-1,-1,0
1523629857167,-2031616,88,-56,-1,-1,0
1523629857167,-1703936,88,-56,-1,-1,0
1523629857167,-1310720,88,-56,-1,-1,0
1523629857208,-851968,88,-56,-1,-1,0
1523629857208,-393216,88,-56,-1,-1,0
1523629857208,-131072,88,-56,-1,-1,0
1523629857208,65536,88,-56,-1,-1,0
1523629857208,262144,88,-56,-1,-1,0
1523629857247,458752,88,-56,-1,-1,0
1523629857247,524288,88,-56,-1,-1,0
1523629857247,524288,88,-56,-1,-1,0
1523629857247,524288,88,-56,-1,-1,0
1523629857247,524288,88,-56,-1,-1,0
1523629857287,589824,88,-56,-1,-1,0
1523629857287,589824,88,-56,-1,-1,0
1523629857287,589824,88,-56,-1,-1,0
1523629857287,655360,88,-56,-1,-1,0
1523629857287,655360,88,-56,-1,-1,0
1523629857327,720896,88,-56,-1,-1,0
1523629857327,720896,88,-56,-1,-1,0
1523629857327,720896,88,-56,-1,-1,0
1523629857327,720896,88,-56,-1,-1,0
1523629857327,851968,88,-56,-1,-1,0
1523629857367,851968,88,-56,-1,-1,0
1523629857367,720896,88,-56,-1,-1,0
1523629857367,720896,88,-56,-1,-1,0
1523629857367,655360,88,-56,-1,-1,0
1523629857367,524288,88,-56,-1,-1,0
1523629857407,458752,88,-56,-1,-1,0
1523629857407,524288,88,-56,-1,-1,0
1523629857407,524288,88,-56,-1,-1,0
1523629857407,524288,88,-56,-1,-1,0
1523629857407,589824,88,-56,-1,-1,0
1523629857447,589824,88,-56,-1,-1,0
1523629857447,589824,88,-56,-1,-1,0
1523629857447,589824,88,-56,-1,-1,0
1523629857447,589824,88,-56,-1,-1,0
1523629857447,655360,88,-56,-1,-1,0
1523629857487,720896,88,-56,-1,-1,0
1523629857487,720896,88,-56,-1,-1,0
1523629857487,786432,88,-56,-1,-1,0
1523629857487,786432,88,-56,-1,-1,0
1523629857487,786432,88,-56,-1,-1,0
1523629857527,720896,88,-56,-1,-1,0
1523629857527,589824,88,-56,-1,-1,0
1523629857527,458752,88,-56,-1,-1,0
1523629857527,393216,88,-56,-1,-1,0
1523629857527,458752,88,-56,-1,-1,0
1523629857567,589824,88,-56,-1,-1,0
1523629857567,655360,88,-56,-1,-1,0
1523629857567,720896,88,-56,-1,-1,0
1523629857567,786432,88,-56,-1,-1,0
1523629857567,851968,88,-56,-1,-1,0
1523629857607,786432,88,-56,-1,-1,0
1523629857607,786432,88,-56,-1,-1,0
1523629857607,786432,88,-56,-1,-1,0
1523629857607,851968,88,-56,-1,-1,0
1523629857607,851968,88,-56,-1,-1,0
1523629857647,851968,88,-56,-1,-1,0
1523629857647,786432,88,-56,-1,-1,0
1523629857647,458752,88,-56,-1,-1,0
1523629857647,-917504,88,-56,-1,-1,0
1523629857647,-4128768,88,-56,-1,-1,0
1523629857687,-7208960,88,-56,-1,-1,0
1523629857687,-6160384,88,-56,-1,-1,0
1523629857687,-1835008,88,-56,-1,-1,0
1523629857687,1441792,88,-56,-1,-1,0
1523629857687,2097152,88,-56,-1,-1,0
1523629857727,1703936,87,-56,-1,-1,0
1523629857727,1245184,87,-56,-1,-1,0
1523629857727,851968,87,-56,-1,-1,0
1523629857727,720896,87,-56,-1,-1,0
1523629857727,589824,87,-56,-1,-1,0
1523629857767,524288,87,-56,-1,-1,0
1523629857767,393216,87,-56,-1,-1,0
1523629857767,327680,87,-56,-1,-1,0
1523629857767,196608,87,-56,-1,-1,0
1523629857767,131072,87,-56,-1,-1,0
1523629857807,131072,87,-56,-1,-1,0
1523629857807,65536,87,-56,-1,-1,0
1523629857807,0,87,-56,-1,-1,0
1523629857807,-196608,87,-56,-1,-1,0
1523629857807,-393216,87,-56,-1,-1,0
1523629857848,-589824,87,-56,-1,-1,0
1523629857848,-851968,87,-56,-1,-1,0
1523629857848,-1179648,87,-56,-1,-1,0
1523629857848,-1507328,87,-56,-1,-1,0
1523629857848,-1703936,87,-56,-1,-1,0
1523629857887,-1966080,87,-56,-1,-1,0
1523629857887,-2097152,87,-56,-1,-1,0
1523629857887,-2097152,87,-56,-1,-1,0
1523629857887,-1966080,87,-56,-1,-1,0
1523629857887,-1769472,87,-56,-1,-1,0
1523629857927,-1376256,87,-56,-1,-1,0
1523629857927,-851968,87,-56,-1,-1,0
1523629857927,-458752,87,-56,-1,-1,0
1523629857927,-65536,87,-56,-1,-1,0
1523629857927,196608,87,-56,-1,-1,0
1523629857967,458752,87,-56,-1,-1,0
1523629857967,589824,87,-56,-1,-1,0
1523629857967,655360,87,-56,-1,-1,0
1523629857967,655360,87,-56,-1,-1,0
1523629857967,720896,87,-56,-1,-1,0
1523629858007,720896,87,-56,-1,-1,0
1523629858007,655360,87,-56,-1,-1,0
1523629858007,655360,87,-56,-1,-1,0
1523629858007,720896,87,-56,-1,-1,0
1523629858007,786432,87,-56,-1,-1,0
1523629858047,851968,87,-56,-1,-1,0
1523629858047,917504,87,-56,-1,-1,0
1523629858047,917504,87,-56,-1,-1,0
1523629858047,851968,87,-56,-1,-1,0
1523629858047,786432,87,-56,-1,-1,0
1523629858087,786432,87,-56,-1,-1,0
1523629858087,851968,87,-56,-1,-1,0
1523629858087,851968,87,-56,-1,-1,0
1523629858087,851968,87,-56,-1,-1,0
1523629858087,786432,87,-56,-1,-1,0
1523629858127,720896,87,-56,-1,-1,0
1523629858127,655360,87,-56,-1,-1,0
1523629858127,589824,87,-56,-1,-1,0
1523629858127,524288,87,-56,-1,-1,0
1523629858127,589824,87,-56,-1,-1,0
1523629858167,655360,87,-56,-1,-1,0
1523629858167,655360,87,-56,-1,-1,0
1523629858167,655360,87,-56,-1,-1,0
1523629858167,720896,87,-56,-1,-1,0
1523629858167,720896,87,-56,-1,-1,0
1523629858207,589824,87,-56,-1,-1,0
1523629858207,589824,87,-56,-1,-1,0
1523629858207,655360,87,-56,-1,-1,0
1523629858207,655360,87,-56,-1,-1,0
1523629858207,655360,87,-56,-1,-1,0
1523629858247,720896,87,-56,-1,-1,0
1523629858247,720896,87,-56,-1,-1,0
1523629858247,786432,87,-56,-1,-1,0
1523629858247,851968,87,-56,-1,-1,0
1523629858247,851968,87,-56,-1,-1,0
1523629858287,720896,87,-56,-1,-1,0
1523629858287,589824,87,-56,-1,-1,0
1523629858287,393216,87,-56,-1,-1,0
1523629858287,327680,87,-56,-1,-1,0
1523629858287,393216,87,-56,-1,-1,0
1523629858327,524288,87,-56,-1,-1,0
1523629858327,655360,87,-56,-1,-1,0
1523629858327,720896,87,-56,-1,-1,0
1523629858327,786432,87,-56,-1,-1,0
1523629858327,786432,87,-56,-1,-1,0
1523629858367,786432,87,-56,-1,-1,0
1523629858367,786432,87,-56,-1,-1,0
1523629858367,786432,87,-56,-1,-1,0
1523629858367,720896,87,-56,-1,-1,0
1523629858367,655360,87,-56,-1,-1,0
1523629858407,655360,87,-56,-1,-1,0
1523629858407,589824,87,-56,-1,-1,0
1523629858407,196608,87,-56,-1,-1,0
1523629858407,-1507328,87,-56,-1,-1,0
1523629858407,-4980736,87,-56,-1,-1,0
1523629858447,-7733248,86,-56,-1,-1,0
1523629858447,-5963776,86,-56,-1,-1,0
1523629858447,-1245184,86,-56,-1,-1,0
1523629858447,1703936,86,-56,-1,-1,0
1523629858447,2162688,86,-56,-1,-1,0
1523629858488,1703936,86,-56,-1,-1,0
1523629858488,1245184,86,-56,-1,-1,0
1523629858488,786432,86,-56,-1,-1,0
1523629858488,589824,86,-56,-1,-1,0
1523629858488,458752,86,-56,-1,-1,0
1523629858527,458752,86,-56,-1,-1,0
1523629858527,327680,86,-56,-1,-1,0
1523629858527,196608,86,-56,-1,-1,0
1523629858527,131072,86,-56,-1,-1,0
1523629858527,0,86,-56,-1,-1,0
1523629858567,-65536,86,-56,-1,-1,0
1523629858567,-131072,86,-56,-1,-1,0
1523629858567,-262144,86,-56,-1,-1,0
1523629858567,-393216,86,-56,-1,-1,0
1523629858567,-524288,86,-56,-1,-1,0
1523629858607,-786432,86,-56,-1,-1,0
1523629858607,-1114112,86,-56,-1,-1,0
1523629858607,-1441792,86,-56,-1,-1,0
1523629858607,-1769472,86,-56,-1,-1,0
1523629858607,-2097152,86,-56,-1,-1,0
1523629858647,-2490368,86,-56,-1,-1,0
1523629858647,-2686976,86,-56,-1,-1,0
1523629858647,-2686976,86,-56,-1,-1,0
1523629858647,-2424832,86,-56,-1,-1,0
1523629858647,-2031616,86,-56,-1,-1,0
1523629858687,-1572864,86,-56,-1,-1,0
1523629858687,-1114112,86,-56,-1,-1,0
1523629858687,-720896,86,-56,-1,-1,0
1523629858687,-327680,86,-56,-1,-1,0
1523629858687,0,86,-56,-1,-1,0
1523629858727,196608,86,-56,-1,-1,0
1523629858727,262144,86,-56,-1,-1,0
1523629858727,393216,86,-56,-1,-1,0
1523629858727,458752,86,-56,-1,-1,0
1523629858727,458752,86,-56,-1,-1,0
1523629858767,524288,86,-56,-1,-1,0
1523629858767,524288,86,-56,-1,-1,0
1523629858767,589824,86,-56,-1,-1,0
1523629858767,655360,86,-56,-1,-1,0
1523629858767,720896,86,-56,-1,-1,0
1523629858807,655360,86,-56,-1,-1,0
1523629858807,655360,86,-56,-1,-1,0
1523629858807,655360,86,-56,-1,-1,0
1523629858807,720896,86,-56,-1,-1,0
1523629858807,786432,86,-56,-1,-1,0
1523629858847,720896,86,-56,-1,-1,0
1523629858847,655360,86,-56,-1,-1,0
1523629858847,720896,86,-56,-1,-1,0
1523629858847,720896,86,-56,-1,-1,0
1523629858847,589824,86,-56,-1,-1,0
1523629858887,524288,86,-56,-1,-1,0
1523629858887,524288,86,-56,-1,-1,0
1523629858887,524288,86,-56,-1,-1,0
1523629858887,524288,86,-56,-1,-1,0
1523629858887,589824,86,-56,-1,-1,0
1523629858927,524288,86,-56,-1,-1,0
1523629858927,393216,86,-56,-1,-1,0
1523629858927,524288,86,-56,-1,-1,0
1523629858927,524288,86,-56,-1,-1,0
1523629858927,589824,86,-56,-1,-1,0
1523629858967,589824,86,-56,-1,-1,0
1523629858967,589824,86,-56,-1,-1,0
1523629858967,589824,86,-56,-1,-1,0
1523629858967,655360,86,-56,-1,-1,0
1523629858967,720896,86,-56,-1,-1,0
1523629859007,720896,86,-56,-1,-1,0
1523629859007,720896,86,-56,-1,-1,0
1523629859007,655360,86,-56,-1,-1,0
1523629859007,589824,86,-56,-1,-1,0
1523629859007,458752,86,-56,-1,-1,0
1523629859047,393216,86,-56,-1,-1,0
1523629859047,327680,86,-56,-1,-1,0
1523629859047,393216,86,-56,-1,-1,0
1523629859047,589824,86,-56,-1,-1,0
1523629859047,720896,86,-56,-1,-1,0
1523629859087,655360,86,-56,-1,-1,0
1523629859087,589824,86,-56,-1,-1,0
1523629859087,589824,86,-56,-1,-1,0
1523629859087,655360,86,-56,-1,-1,0
1523629859087,655360,86,-56,-1,-1,0
1523629859128,720896,86,-56,-1,-1,0
1523629859128,851968,86,-56,-1,-1,0
1523629859128,983040,86,-56,-1,-1,0
1523629859128,917504,86,-56,-1,-1,0
1523629859128,655360,86,-56,-1,-1,0
1523629859167,65536,86,-56,-1,-1,0
1523629859167,-1835008,86,-56,-1,-1,0
1523629859167,-5505024,86,-56,-1,-1,0
1523629859167,-7864320,86,-56,-1,-1,0
1523629859167,-5570560,86,-56,-1,-1,0
1523629859207,-851968,86,-56,-1,-1,0
1523629859207,1835008,86,-56,-1,-1,0
1523629859207,2031616,86,-56,-1,-1,0
1523629859207,1507328,86,-56,-1,-1,0
1523629859207,1048576,86,-56,-1,-1,0
1523629859247,786432,86,-56,-1,-1,0
1523629859247,589824,86,-56,-1,-1,0
1523629859247,458752,86,-56,-1,-1,0
1523629859247,327680,86,-56,-1,-1,0
1523629859247,262144,86,-56,-1,-1,0
1523629859287,262144,86,-56,-1,-1,0
1523629859287,327680,86,-56,-1,-1,0
1523629859287,262144,86,-56,-1,-1,0
1523629859287,65536,86,-56,-1,-1,0
1523629859287,-65536,86,-56,-1,-1,0
1523629859327,-131072,86,-56,-1,-1,0
1523629859327,-262144,86,-56,-1,-1,0
1523629859327,-589824,86,-56,-1,-1,0
1523629859327,-851968,86,-56,-1,-1,0
1523629859327,-1114112,86,-56,-1,-1,0
1523629859367,-1441792,86,-56,-1,-1,0
1523629859367,-1769472,86,-56,-1,-1,0
1523629859367,-2097152,86,-56,-1,-1,0
1523629859367,-2293760,86,-56,-1,-1,0
1523629859367,-2359296,86,-56,-1,-1,0
1523629859407,-2359296,86,-56,-1,-1,0
1523629859407,-2162688,86,-56,-1,-1,0
1523629859407,-1835008,86,-56,-1,-1,0
1523629859407,-1441792,86,-56,-1,-1,0
1523629859407,-917504,86,-56,-1,-1,0
1523629859447,-393216,86,-56,-1,-1,0
1523629859447,-65536,86,-56,-1,-1,0
1523629859447,131072,86,-56,-1,-1,0
1523629859447,393216,86,-56,-1,-1,0
1523629859447,524288,86,-56,-1,-1,0
1523629859487,589824,86,-56,-1,-1,0
1523629859487,655360,86,-56,-1,-1,0
1523629859487,720896,86,-56,-1,-1,0
1523629859487,720896,86,-56,-1,-1,0
1523629859487,720896,86,-56,-1,-1,0
1523629859527,655360,86,-56,-1,-1,0
1523629859527,720896,86,-56,-1,-1,0
1523629859527,786432,86,-56,-1,-1,0
1523629859527,851968,86,-56,-1,-1,0
1523629859527,851968,86,-56,-1,-1,0
1523629859567,917504,86,-56,-1,-1,0
1523629859567,851968,86,-56,-1,-1,0
1523629859567,786432,86,-56,-1,-1,0
1523629859567,720896,86,-56,-1,-1,0
1523629859567,786432,86,-56,-1,-1,0
1523629859607,720896,86,-56,-1,-1,0
1523629859607,655360,86,-56,-1,-1,0
1523629859607,589824,86,-56,-1,-1,0
1523629859607,524288,86,-56,-1,-1,0
1523629859607,524288,86,-56,-1,-1,0
1523629859647,524288,86,-56,-1,-1,0
1523629859647,589824,86,-56,-1,-1,0
1523629859647,589824,86,-56,-1,-1,0
1523629859647,589824,86,-56,-1,-1,0
1523629859647,524288,86,-56,-1,-1,0
1523629859687,589824,86,-56,-1,-1,0
1523629859687,655360,86,-56,-1,-1,0
1523629859687,720896,86,-56,-1,-1,0
1523629859687,786432,86,-56,-1,-1,0
1523629859687,786432,86,-56,-1,-1,0
1523629859727,786432,86,-56,-1,-1,0
1523629859727,720896,86,-56,-1,-1,0
1523629859727,720896,86,-56,-1,-1,0
1523629859727,786432,86,-56,-1,-1,0
1523629859727,786432,86,-56,-1,-1,0
1523629859768,851968,86,-56,-1,-1,0
1523629859768,786432,86,-56,-1,-1,0
1523629859768,655360,86,-56,-1,-1,0
1523629859768,589824,86,-56,-1,-1,0
1523629859768,655360,86,-56,-1,-1,0
1523629859807,589824,86,-56,-1,-1,0
1523629859807,655360,86,-56,-1,-1,0
1523629859807,851968,86,-56,-1,-1,0
1523629859807,917504,86,-56,-1,-1,0
1523629859807,851968,86,-56,-1,-1,0
1523629859847,786432,86,-56,-1,-1,0
1523629859847,851968,86,-56,-1,-1,0
1523629859847,917504,86,-56,-1,-1,0
1523629859847,917504,86,-56,-1,-1,0
1523629859847,983040,86,-56,-1,-1,0
1523629859887,983040,86,-56,-1,-1,0
1523629859887,983040,86,-56,-1,-1,0
1523629859887,983040,86,-56,-1,-1,0
1523629859887,917504,86,-56,-1,-1,0
1523629859887,196608,86,-56,-1,-1,0
1523629859927,-1900544,85,-56,-1,-1,0
1523629859927,-5308416,85,-56,-1,-1,0
1523629859927,-6553600,85,-56,-1,-1,0
1523629859927,-3342336,85,-56,-1,-1,0
1523629859927,917504,85,-56,-1,-1,0
1523629859967,2686976,85,-56,-1,-1,0
1523629859967,2424832,85,-56,-1,-1,0
1523629859967,1835008,85,-56,-1,-1,0
1523629859967,1245184,85,-56,-1,-1,0
1523629859967,851968,85,-56,-1,-1,0
1523629860007,720896,85,-56,-1,-1,0
1523629860007,655360,85,-56,-1,-1,0
1523629860007,589824,85,-56,-1,-1,0
1523629860007,524288,85,-56,-1,-1,0
1523629860007,393216,85,-56,-1,-1,0
1523629860047,327680,85,-56,-1,-1,0
1523629860047,196608,85,-56,-1,-1,0
1523629860047,65536,85,-56,-1,-1,0
1523629860047,0,85,-56,-1,-1,0
1523629860047,-131072,85,-56,-1,-1,0
1523629860087,-393216,85,-56,-1,-1,0
1523629860087,-655360,85,-56,-1,-1,0
1523629860087,-983040,85,-56,-1,-1,0
1523629860087,-1376256,85,-56,-1,-1,0
1523629860087,-1769472,85,-56,-1,-1,0
1523629860127,-2097152,85,-56,-1,-1,0
1523629860127,-2424832,85,-56,-1,-1,0
1523629860127,-2621440,85,-56,-1,-1,0
1523629860127,-2686976,85,-56,-1,-1,0
1523629860127,-2686976,85,-56,-1,-1,0
1523629860167,-2490368,85,-56,-1,-1,0
1523629860167,-2097152,85,-56,-1,-1,0
1523629860167,-1572864,85,-56,-1,-1,0
1523629860167,-983040,85,-56,-1,-1,0
1523629860167,-524288,85,-56,-1,-1,0
1523629860207,-131072,85,-56,-1,-1,0
1523629860207,131072,85,-56,-1,-1,0
1523629860207,327680,85,-56,-1,-1,0
1523629860207,393216,85,-56,-1,-1,0
1523629860207,393216,85,-56,-1,-1,0
1523629860247,524288,85,-56,-1,-1,0
1523629860247,589824,85,-56,-1,-1,0
1523629860247,589824,85,-56,-1,-1,0
1523629860247,655360,85,-56,-1,-1,0
1523629860247,720896,85,-56,-1,-1,0
1523629860287,655360,85,-56,-1,-1,0
1523629860287,589824,85,-56,-1,-1,0
1523629860287,589824,85,-56,-1,-1,0
1523629860287,655360,85,-56,-1,-1,0
1523629860287,720896,85,-56,-1,-1,0
1523629860327,786432,85,-56,-1,-1,0
1523629860327,786432,85,-56,-1,-1,0
1523629860327,720896,85,-56,-1,-1,0
1523629860327,524288,85,-56,-1,-1,0
1523629860327,393216,85,-56,-1,-1,0
1523629860367,458752,85,-56,-1,-1,0
1523629860367,458752,85,-56,-1,-1,0
1523629860367,393216,85,-56,-1,-1,0
1523629860367,458752,85,-56,-1,-1,0
1523629860367,458752,85,-56,-1,-1,0
1523629860408,458752,85,-56,-1,-1,0
1523629860408,458752,85,-56,-1,-1,0
1523629860408,458752,85,-56,-1,-1,0
1523629860408,458752,85,-56,-1,-1,0
1523629860408,524288,85,-56,-1,-1,0
1523629860447,524288,85,-56,-1,-1,0
1523629860447,589824,85,-56,-1,-1,0
1523629860447,655360,85,-56,-1,-1,0
1523629860447,655360,85,-56,-1,-1,0
1523629860447,393216,85,-56,-1,-1,0
1523629860487,196608,85,-56,-1,-1,0
1523629860487,131072,85,-56,-1,-1,0
1523629860487,131072,85,-56,-1,-1,0
1523629860487,262144,85,-56,-1,-1,0
1523629860487,393216,85,-56,-1,-1,0
1523629860527,458752,85,-56,-1,-1,0
1523629860527,589824,85,-56,-1,-1,0
1523629860527,655360,85,-56,-1,-1,0
1523629860527,655360,85,-56,-1,-1,0
1523629860527,655360,85,-56,-1,-1,0
1523629860567,720896,85,-56,-1,-1,0
1523629860567,720896,85,-56,-1,-1,0
1523629860567,655360,85,-56,-1,-1,0
1523629860567,655360,85,-56,-1,-1,0
1523629860567,655360,85,-56,-1,-1,0
1523629860607,655360,85,-56,-1,-1,0
1523629860607,262144,85,-56,-1,-1,0
1523629860607,-1179648,85,-56,-1,-1,0
1523629860607,-4063232,85,-56,-1,-1,0
1523629860607,-6225920,85,-56,-1,-1,0
1523629860647,-4521984,85,-56,-1,-1,0
1523629860647,-262144,85,-56,-1,-1,0
1523629860647,2293760,85,-56,-1,-1,0
1523629860647,2293760,85,-56,-1,-1,0
1523629860647,1638400,85,-56,-1,-1,0
1523629860687,1048576,85,-56,-1,-1,0
1523629860687,589824,85,-56,-1,-1,0
1523629860687,393216,85,-56,-1,-1,0
1523629860687,262144,85,-56,-1,-1,0
1523629860687,262144,85,-56,-1,-1,0
1523629860727,327680,85,-56,-1,-1,0
1523629860727,196608,85,-56,-1,-1,0
1523629860727,0,85,-56,-1,-1,0
1523629860727,-65536,85,-56,-1,-1,0
1523629860727,-262144,85,-56,-1,-1,0
1523629860767,-458752,85,-56,-1,-1,0
1523629860767,-655360,85,-56,-1,-1,0
1523629860767,-720896,85,-56,-1,-1,0
1523629860767,-917504,85,-56,-1,-1,0
1523629860767,-1179648,85,-56,-1,-1,0
1523629860807,-1507328,85,-56,-1,-1,0
1523629860807,-1769472,85,-56,-1,-1,0
1523629860807,-2162688,85,-56,-1,-1,0
1523629860807,-2555904,85,-56,-1,-1,0
1523629860807,-2818048,85,-56,-1,-1,0
1523629860847,-2883584,85,-56,-1,-1,0
1523629860847,-2883584,85,-56,-1,-1,0
1523629860847,-2818048,85,-56,-1,-1,0
1523629860847,-2359296,85,-56,-1,-1,0
1523629860847,-1703936,85,-56,-1,-1,0
1523629860887,-1179648,85,-56,-1,-1,0
1523629860887,-786432,85,-56,-1,-1,0
1523629860887,-327680,85,-56,-1,-1,0
1523629860887,0,85,-56,-1,-1,0
1523629860887,262144,85,-56,-1,-1,0
1523629860927,327680,85,-56,-1,-1,0
1523629860927,131072,85,-56,-1,-1,0
1523629860927,0,85,-56,-1,-1,0
1523629860927,131072,85,-56,-1,-1,0
1523629860927,393216,85,-56,-1,-1,0
1523629860967,393216,85,-56,-1,-1,0
1523629860967,393216,85,-56,-1,-1,0
1523629860967,720896,85,-56,-1,-1,0
1523629860967,917504,85,-56,-1,-1,0
1523629860967,655360,85,-56,-1,-1,0
1523629861007,589824,85,-56,-1,-1,0
1523629861007,655360,85,-56,-1,-1,0
1523629861007,786432,85,-56,-1,-1,0
1523629861007,720896,85,-56,-1,-1,0
1523629861007,458752,85,-56,-1,-1,0
1523629861048,262144,85,-56,-1,-1,0
1523629861048,196608,85,-56,-1,-1,0
1523629861048,327680,85,-56,-1,-1,0
1523629861048,589824,85,-56,-1,-1,0
1523629861048,589824,85,-56,-1,-1,0
1523629861087,458752,85,-56,-1,-1,0
1523629861087,458752,85,-56,-1,-1,0
1523629861087,458752,85,-56,-1,-1,0
1523629861087,327680,85,-56,-1,-1,0
1523629861087,196608,85,-56,-1,-1,0
1523629861129,524288,85,-56,-1,-1,0
1523629861129,589824,85,-56,-1,-1,0
1523629861129,458752,85,-56,-1,-1,0
1523629861129,524288,85,-56,-1,-1,0
1523629861129,786432,85,-56,-1,-1,0
1523629861167,786432,85,-56,-1,-1,0
1523629861167,589824,85,-56,-1,-1,0
1523629861167,458752,85,-56,-1,-1,0
1523629861167,393216,85,-56,-1,-1,0
1523629861167,327680,85,-56,-1,-1,0
1523629861207,327680,85,-56,-1,-1,0
1523629861207,524288,85,-56,-1,-1,0
1523629861207,655360,85,-56,-1,-1,0
1523629861207,655360,85,-56,-1,-1,0
1523629861207,655360,85,-56,-1,-1,0
1523629861247,655360,85,-56,-1,-1,0
1523629861247,524288,85,-56,-1,-1,0
1523629861247,589824,85,-56,-1,-1,0
1523629861247,720896,85,-56,-1,-1,0
1523629861247,720896,85,-56,-1,-1,0
1523629861287,720896,85,-56,-1,-1,0
1523629861287,720896,85,-56,-1,-1,0
1523629861287,524288,85,-56,-1,-1,0
1523629861287,720896,85,-56,-1,-1,0
1523629861287,917504,85,-56,-1,-1,0
1523629861327,-458752,85,-56,-1,-1,0
1523629861327,-3801088,85,-56,-1,-1,0
1523629861327,-6225920,85,-56,-1,-1,0
1523629861327,-4390912,85,-56,-1,-1,0
1523629861327,-196608,85,-56,-1,-1,0
1523629861367,2424832,85,-56,-1,-1,0
1523629861367,2621440,85,-56,-1,-1,0
1523629861367,2031616,85,-56,-1,-1,0
1523629861367,1376256,85,-56,-1,-1,0
1523629861367,851968,85,-56,-1,-1,0
1523629861407,655360,85,-56,-1,-1,0
1523629861407,589824,85,-56,-1,-1,0
1523629861407,589824,85,-56,-1,-1,0
1523629861407,524288,85,-56,-1,-1,0
1523629861407,393216,85,-56,-1,-1,0
1523629861447,0,85,-56,-1,-1,0
1523629861447,-65536,85,-56,-1,-1,0
1523629861447,0,85,-56,-1,-1,0
1523629861447,0,85,-56,-1,-1,0
1523629861447,-196608,85,-56,-1,-1,0
1523629861489,-393216,85,-56,-1,-1,0
1523629861489,-458752,85,-56,-1,-1,0
1523629861489,-720896,85,-56,-1,-1,0
1523629861489,-1114112,85,-56,-1,-1,0
1523629861489,-1703936,85,-56,-1,-1,0
1523629861527,-2228224,85,-56,-1,-1,0
1523629861527,-2621440,85,-56,-1,-1,0
1523629861527,-2686976,85,-56,-1,-1,0
1523629861527,-2686976,85,-56,-1,-1,0
1523629861527,-2621440,85,-56,-1,-1,0
1523629861567,-2555904,85,-56,-1,-1,0
1523629861567,-2228224,85,-56,-1,-1,0
1523629861567,-1703936,85,-56,-1,-1,0
1523629861567,-1048576,85,-56,-1,-1,0
1523629861567,-655360,85,-56,-1,-1,0
1523629861607,-458752,85,-56,-1,-1,0
1523629861607,0,85,-56,-1,-1,0
1523629861607,458752,85,-56,-1,-1,0
1523629861607,786432,85,-56,-1,-1,0
1523629861607,720896,85,-56,-1,-1,0
1523629861647,589824,85,-56,-1,-1,0
1523629861647,524288,85,-56,-1,-1,0
1523629861647,524288,85,-56,-1,-1,0
1523629861647,655360,85,-56,-1,-1,0
1523629861647,655360,85,-56,-1,-1,0
1523629861688,655360,85,-56,-1,-1,0
1523629861688,786432,85,-56,-1,-1,0
1523629861688,917504,85,-56,-1,-1,0
1523629861688,983040,85,-56,-1,-1,0
1523629861688,1048576,85,-56,-1,-1,0
1523629861727,983040,85,-56,-1,-1,0
1523629861727,851968,85,-56,-1,-1,0
1523629861727,720896,85,-56,-1,-1,0
1523629861727,786432,85,-56,-1,-1,0
1523629861727,917504,85,-56,-1,-1,0
1523629861767,851968,85,-56,-1,-1,0
1523629861767,720896,85,-56,-1,-1,0
1523629861767,655360,85,-56,-1,-1,0
1523629861767,720896,85,-56,-1,-1,0
1523629861767,786432,85,-56,-1,-1,0
1523629861807,720896,85,-56,-1,-1,0
1523629861807,589824,85,-56,-1,-1,0
1523629861807,393216,85,-56,-1,-1,0
1523629861807,655360,85,-56,-1,-1,0
1523629861807,1048576,85,-56,-1,-1,0
1523629861847,983040,85,-56,-1,-1,0
1523629861847,786432,85,-56,-1,-1,0
1523629861847,786432,85,-56,-1,-1,0
1523629861847,786432,85,-56,-1,-1,0
1523629861847,393216,85,-56,-1,-1,0
1523629861887,327680,85,-56,-1,-1,0
1523629861887,589824,85,-56,-1,-1,0
1523629861887,851968,85,-56,-1,-1,0
1523629861887,917504,85,-56,-1,-1,0
1523629861887,851968,85,-56,-1,-1,0
1523629861927,786432,85,-56,-1,-1,0
1523629861927,786432,85,-56,-1,-1,0
1523629861927,655360,85,-56,-1,-1,0
1523629861927,524288,85,-56,-1,-1,0
1523629861927,589824,85,-56,-1,-1,0
1523629861967,720896,85,-56,-1,-1,0
1523629861967,917504,85,-56,-1,-1,0
1523629861967,917504,85,-56,-1,-1,0
1523629861967,786432,85,-56,-1,-1,0
1523629861967,262144,85,-56,-1,-1,0
1523629862007,-1441792,85,-56,-1,-1,0
1523629862007,-4653056,85,-56,-1,-1,0
1523629862007,-6684672,85,-56,-1,-1,0
1523629862007,-4390912,85,-56,-1,-1,0
1523629862007,0,85,-56,-1,-1,0
1523629862047,2162688,85,-56,-1,-1,0
1523629862047,2228224,85,-56,-1,-1,0
1523629862047,1638400,85,-56,-1,-1,0
1523629862047,917504,85,-56,-1,-1,0
1523629862047,393216,85,-56,-1,-1,0
1523629862087,131072,85,-56,-1,-1,0
1523629862087,0,85,-56,-1,-1,0
1523629862087,0,85,-56,-1,-1,0
1523629862087,0,85,-56,-1,-1,0
1523629862087,0,85,-56,-1,-1,0
1523629862127,-262144,85,-56,-1,-1,0
1523629862127,-524288,85,-56,-1,-1,0
1523629862127,-589824,85,-56,-1,-1,0
1523629862127,-655360,85,-56,-1,-1,0
1523629862127,-917504,85,-56,-1,-1,0
1523629862167,-1245184,85,-56,-1,-1,0
1523629862167,-1507328,85,-56,-1,-1,0
1523629862167,-1769472,85,-56,-1,-1,0
1523629862167,-2031616,85,-56,-1,-1,0
1523629862167,-2359296,85,-56,-1,-1,0
1523629862207,-2818048,85,-56,-1,-1,0
1523629862207,-3080192,85,-56,-1,-1,0
1523629862207,-3145728,85,-56,-1,-1,0
1523629862207,-3080192,85,-56,-1,-1,0
1523629862207,-3145728,85,-56,-1,-1,0
1523629862247,-3145728,85,-56,-1,-1,0
1523629862247,-2883584,85,-56,-1,-1,0
1523629862247,-2293760,85,-56,-1,-1,0
1523629862247,-1703936,85,-56,-1,-1,0
1523629862247,-1245184,85,-56,-1,-1,0
1523629862287,-720896,85,-56,-1,-1,0
1523629862287,-262144,85,-56,-1,-1,0
1523629862287,-65536,85,-56,-1,-1,0
1523629862287,-65536,85,-56,-1,-1,0
1523629862287,-65536,85,-56,-1,-1,0
1523629862328,0,85,-56,-1,-1,0
1523629862328,0,85,-56,-1,-1,0
1523629862328,65536,85,-56,-1,-1,0
1523629862328,65536,85,-56,-1,-1,0
1523629862328,131072,85,-56,-1,-1,0
1523629862367,262144,85,-56,-1,-1,0
1523629862367,458752,85,-56,-1,-1,0
1523629862367,262144,85,-56,-1,-1,0
1523629862367,0,85,-56,-1,-1,0
1523629862367,-65536,85,-56,-1,-1,0
1523629862407,0,85,-56,-1,-1,0
1523629862407,0,85,-56,-1,-1,0
1523629862407,-65536,85,-56,-1,-1,0
1523629862407,0,85,-56,-1,-1,0
1523629862407,-65536,85,-56,-1,-1,0
1523629862447,0,85,-56,-1,-1,0
1523629862447,65536,85,-56,-1,-1,0
1523629862447,196608,85,-56,-1,-1,0
1523629862447,0,85,-56,-1,-1,0
1523629862447,-196608,85,-56,-1,-1,0
1523629862487,-262144,85,-56,-1,-1,0
1523629862487,-131072,85,-56,-1,-1,0
1523629862487,0,85,-56,-1,-1,0
1523629862487,0,85,-56,-1,-1,0
1523629862487,0,85,-56,-1,-1,0
1523629862527,0,85,-56,-1,-1,0
1523629862527,0,85,-56,-1,-1,0
1523629862527,0,85,-56,-1,-1,0
1523629862527,0,85,-56,-1,-1,0
1523629862527,-65536,85,-56,-1,-1,0
1523629862567,-262144,85,-56,-1,-1,0
1523629862567,-196608,85,-56,-1,-1,0
1523629862567,0,85,-56,-1,-1,0
1523629862567,65536,85,-56,-1,-1,0
1523629862567,131072,85,-56,-1,-1,0
1523629862607,393216,85,-56,-1,-1,0
1523629862607,458752,85,-56,-1,-1,0
1523629862607,327680,85,-56,-1,-1,0
1523629862607,262144,85,-56,-1,-1,0
1523629862607,262144,85,-56,-1,-1,0
1523629862647,0,85,-56,-1,-1,0
1523629862647,65536,85,-56,-1,-1,0
1523629862647,589824,85,-56,-1,-1,0
1523629862647,1048576,85,-56,-1,-1,0
1523629862647,917504,85,-56,-1,-1,0
1523629862688,458752,85,-56,-1,-1,0
1523629862688,-851968,85,-56,-1,-1,0
1523629862688,-3801088,85,-56,-1,-1,0
1523629862688,-6291456,85,-56,-1,-1,0
1523629862688,-4849664,85,-56,-1,-1,0
1523629862727,-720896,85,-56,-1,-1,0
1523629862727,1966080,85,-56,-1,-1,0
1523629862727,2293760,85,-56,-1,-1,0
1523629862727,1900544,85,-56,-1,-1,0
1523629862727,1376256,85,-56,-1,-1,0
1523629862767,917504,85,-56,-1,-1,0
1523629862767,917504,85,-56,-1,-1,0
1523629862767,1114112,85,-56,-1,-1,0
1523629862767,1179648,85,-56,-1,-1,0
1523629862767,1114112,85,-56,-1,-1,0
1523629862807,1114112,85,-56,-1,-1,0
1523629862807,1179648,85,-56,-1,-1,0
1523629862807,983040,85,-56,-1,-1,0
1523629862807,720896,85,-56,-1,-1,0
1523629862807,589824,85,-56,-1,-1,0
1523629862847,524288,85,-56,-1,-1,0
1523629862847,393216,85,-56,-1,-1,0
1523629862847,196608,85,-56,-1,-1,0
1523629862847,0,85,-56,-1,-1,0
1523629862847,-196608,85,-56,-1,-1,0
1523629862887,-458752,85,-56,-1,-1,0
1523629862887,-786432,85,-56,-1,-1,0
1523629862887,-1114112,85,-56,-1,-1,0
1523629862887,-1310720,85,-56,-1,-1,0
1523629862887,-1441792,85,-56,-1,-1,0
1523629862927,-1572864,85,-56,-1,-1,0
1523629862927,-1441792,85,-56,-1,-1,0
1523629862927,-1114112,85,-56,-1,-1,0
1523629862927,-655360,85,-56,-1,-1,0
1523629862927,-131072,85,-56,-1,-1,0
1523629862968,131072,85,-56,-1,-1,0
1523629862968,393216,85,-56,-1,-1,0
1523629862968,655360,85,-56,-1,-1,0
1523629862968,851968,85,-56,-1,-1,0
1523629862968,983040,85,-56,-1,-1,0
1523629863007,1114112,85,-56,-1,-1,0
1523629863007,1245184,85,-56,-1,-1,0
1523629863007,1310720,85,-56,-1,-1,0
1523629863007,1310720,85,-56,-1,-1,0
1523629863007,1310720,85,-56,-1,-1,0
1523629863047,1376256,85,-56,-1,-1,0
1523629863047,1376256,85,-56,-1,-1,0
1523629863047,1310720,85,-56,-1,-1,0
1523629863047,1245184,85,-56,-1,-1,0
1523629863047,1114112,85,-56,-1,-1,0
1523629863087,1048576,85,-56,-1,-1,0
1523629863087,1179648,85,-56,-1,-1,0
1523629863087,1114112,85,-56,-1,-1,0
1523629863087,1048576,85,-56,-1,-1,0
1523629863087,1114112,85,-56,-1,-1,0
1523629863127,1179648,85,-56,-1,-1,0
1523629863127,1179648,85,-56,-1,-1,0
1523629863127,1114112,85,-56,-1,-1,0
1523629863127,983040,85,-56,-1,-1,0
1523629863127,983040,85,-56,-1,-1,0
1523629863167,917504,85,-56,-1,-1,0
1523629863167,851968,85,-56,-1,-1,0
1523629863167,720896,85,-56,-1,-1,0
1523629863167,720896,85,-56,-1,-1,0
1523629863167,720896,85,-56,-1,-1,0
1523629863207,851968,85,-56,-1,-1,0
1523629863207,983040,85,-56,-1,-1,0
1523629863207,1048576,85,-56,-1,-1,0
1523629863207,983040,85,-56,-1,-1,0
1523629863207,851968,85,-56,-1,-1,0
1523629863247,786432,85,-56,-1,-1,0
1523629863247,655360,85,-56,-1,-1,0
1523629863247,589824,85,-56,-1,-1,0
1523629863247,524288,85,-56,-1,-1,0
1523629863247,524288,85,-56,-1,-1,0
1523629863287,720896,85,-56,-1,-1,0
1523629863287,786432,85,-56,-1,-1,0
1523629863287,786432,85,-56,-1,-1,0
1523629863287,655360,85,-56,-1,-1,0
1523629863287,655360,85,-56,-1,-1,0
1523629863327,720896,85,-56,-1,-1,0
1523629863327,720896,85,-56,-1,-1,0
1523629863327,720896,85,-56,-1,-1,0
1523629863327,720896,85,-56,-1,-1,0
1523629863327,655360,85,-56,-1,-1,0
1523629863367,655360,85,-56,-1,-1,0
1523629863367,720896,85,-56,-1,-1,0
1523629863367,720896,85,-56,-1,-1,0
1523629863367,262144,85,-56,-1,-1,0
1523629863367,-1507328,85,-56,-1,-1,0
1523629863407,-4849664,85,-56,-1,-1,0
1523629863407,-6946816,85,-56,-1,-1,0
1523629863407,-4915200,85,-56,-1,-1,0
1523629863407,-720896,85,-56,-1,-1,0
1523629863407,1638400,85,-56,-1,-1,0
1523629863447,1966080,85,-56,-1,-1,0
1523629863447,1507328,85,-56,-1,-1,0
1523629863447,1114112,85,-56,-1,-1,0
1523629863447,786432,85,-56,-1,-1,0
1523629863447,655360,85,-56,-1,-1,0
1523629863487,458752,85,-56,-1,-1,0
1523629863487,458752,85,-56,-1,-1,0
1523629863487,393216,85,-56,-1,-1,0
1523629863487,393216,85,-56,-1,-1,0
1523629863487,393216,85,-56,-1,-1,0
1523629863527,393216,85,-56,-1,-1,0
1523629863527,327680,85,-56,-1,-1,0
1523629863527,65536,85,-56,-1,-1,0
1523629863527,-65536,85,-56,-1,-1,0
1523629863527,-262144,85,-56,-1,-1,0
1523629863567,-458752,85,-56,-1,-1,0
1523629863567,-786432,85,-56,-1,-1,0
1523629863567,-983040,85,-56,-1,-1,0
1523629863567,-1245184,85,-56,-1,-1,0
1523629863567,-1638400,85,-56,-1,-1,0
1523629863608,-1835008,85,-56,-1,-1,0
1523629863608,-1900544,85,-56,-1,-1,0
1523629863608,-1900544,85,-56,-1,-1,0
1523629863608,-1966080,85,-56,-1,-1,0
1523629863608,-1835008,85,-56,-1,-1,0
1523629863647,-1507328,85,-56,-1,-1,0
1523629863647,-1114112,85,-56,-1,-1,0
1523629863647,-655360,85,-56,-1,-1,0
1523629863647,-131072,85,-56,-1,-1,0
1523629863647,196608,85,-56,-1,-1,0
1523629863687,393216,85,-56,-1,-1,0
1523629863687,524288,85,-56,-1,-1,0
1523629863687,524288,85,-56,-1,-1,0
1523629863687,589824,85,-56,-1,-1,0
1523629863687,720896,85,-56,-1,-1,0
1523629863728,851968,85,-56,-1,-1,0
1523629863728,983040,85,-56,-1,-1,0
1523629863728,1114112,85,-56,-1,-1,0
1523629863728,1048576,85,-56,-1,-1,0
1523629863728,917504,85,-56,-1,-1,0
1523629863767,917504,85,-56,-1,-1,0
1523629863767,917504,85,-56,-1,-1,0
1523629863767,851968,85,-56,-1,-1,0
1523629863767,851968,85,-56,-1,-1,0
1523629863767,786432,85,-56,-1,-1,0
1523629863807,851968,85,-56,-1,-1,0
1523629863807,1048576,85,-56,-1,-1,0
1523629863807,1048576,85,-56,-1,-1,0
1523629863807,983040,85,-56,-1,-1,0
1523629863807,983040,85,-56,-1,-1,0
1523629863847,983040,85,-56,-1,-1,0
1523629863847,983040,85,-56,-1,-1,0
1523629863847,851968,85,-56,-1,-1,0
1523629863847,917504,85,-56,-1,-1,0
1523629863847,917504,85,-56,-1,-1,0
1523629863887,851968,85,-56,-1,-1,0
1523629863887,655360,85,-56,-1,-1,0
1523629863887,589824,85,-56,-1,-1,0
1523629863887,655360,85,-56,-1,-1,0
1523629863887,786432,85,-56,-1,-1,0
1523629863927,786432,85,-56,-1,-1,0
1523629863927,786432,85,-56,-1,-1,0
1523629863927,786432,85,-56,-1,-1,0
1523629863927,786432,85,-56,-1,-1,0
1523629863927,851968,85,-56,-1,-1,0
1523629863967,851968,85,-56,-1,-1,0
1523629863967,851968,85,-56,-1,-1,0
1523629863967,917504,85,-56,-1,-1,0
1523629863967,851968,85,-56,-1,-1,0
1523629863967,655360,85,-56,-1,-1,0
1523629864007,524288,85,-56,-1,-1,0
1523629864007,458752,85,-56,-1,-1,0
1523629864007,524288,85,-56,-1,-1,0
1523629864007,524288,85,-56,-1,-1,0
1523629864007,655360,85,-56,-1,-1,0
1523629864047,655360,85,-56,-1,-1,0
1523629864047,655360,85,-56,-1,-1,0
1523629864047,786432,85,-56,-1,-1,0
1523629864047,851968,85,-56,-1,-1,0
1523629864047,851968,85,-56,-1,-1,0
1523629864087,786432,85,-56,-1,-1,0
1523629864087,851968,85,-56,-1,-1,0
1523629864087,786432,85,-56,-1,-1,0
1523629864087,655360,85,-56,-1,-1,0
1523629864087,655360,85,-56,-1,-1,0
1523629864127,458752,85,-56,-1,-1,0
1523629864127,-589824,85,-56,-1,-1,0
1523629864127,-3604480,85,-56,-1,-1,0
1523629864127,-7012352,85,-56,-1,-1,0
1523629864127,-6684672,85,-56,-1,-1,0
1523629864168,-2490368,84,-56,-1,-1,0
1523629864168,1114112,84,-56,-1,-1,0
1523629864168,2031616,84,-56,-1,-1,0
1523629864168,1572864,84,-56,-1,-1,0
1523629864168,1114112,84,-56,-1,-1,0
1523629864207,720896,84,-56,-1,-1,0
1523629864207,589824,84,-56,-1,-1,0
1523629864207,393216,84,-56,-1,-1,0
1523629864207,196608,84,-56,-1,-1,0
1523629864207,196608,84,-56,-1,-1,0
1523629864248,131072,84,-56,-1,-1,0
1523629864248,131072,84,-56,-1,-1,0
1523629864248,0,84,-56,-1,-1,0
1523629864248,-65536,84,-56,-1,-1,0
1523629864248,-196608,84,-56,-1,-1,0
1523629864287,-262144,84,-56,-1,-1,0
1523629864287,-393216,84,-56,-1,-1,0
1523629864287,-524288,84,-56,-1,-1,0
1523629864287,-917504,84,-56,-1,-1,0
1523629864287,-1310720,84,-56,-1,-1,0
1523629864327,-1572864,84,-56,-1,-1,0
1523629864327,-1835008,84,-56,-1,-1,0
1523629864327,-2097152,84,-56,-1,-1,0
1523629864327,-2424832,84,-56,-1,-1,0
1523629864327,-2752512,84,-56,-1,-1,0
1523629864367,-2752512,84,-56,-1,-1,0
1523629864367,-2555904,84,-56,-1,-1,0
1523629864367,-2293760,84,-56,-1,-1,0
1523629864367,-1966080,84,-56,-1,-1,0
1523629864367,-1572864,84,-56,-1,-1,0
1523629864407,-1179648,84,-56,-1,-1,0
1523629864407,-786432,84,-56,-1,-1,0
1523629864407,-393216,84,-56,-1,-1,0
1523629864407,0,84,-56,-1,-1,0
1523629864407,196608,84,-56,-1,-1,0
1523629864447,196608,84,-56,-1,-1,0
1523629864447,131072,84,-56,-1,-1,0
1523629864447,65536,84,-56,-1,-1,0
1523629864447,65536,84,-56,-1,-1,0
1523629864447,65536,84,-56,-1,-1,0
1523629864487,131072,84,-56,-1,-1,0
1523629864487,196608,84,-56,-1,-1,0
1523629864487,196608,84,-56,-1,-1,0
1523629864487,65536,84,-56,-1,-1,0
1523629864487,131072,84,-56,-1,-1,0
1523629864527,262144,84,-56,-1,-1,0
1523629864527,262144,84,-56,-1,-1,0
1523629864527,327680,84,-56,-1,-1,0
1523629864527,393216,84,-56,-1,-1,0
1523629864527,458752,84,-56,-1,-1,0
1523629864567,393216,84,-56,-1,-1,0
1523629864567,327680,84,-56,-1,-1,0
1523629864567,393216,84,-56,-1,-1,0
1523629864567,393216,84,-56,-1,-1,0
1523629864567,262144,84,-56,-1,-1,0
1523629864607,196608,84,-56,-1,-1,0
1523629864607,262144,84,-56,-1,-1,0
1523629864607,393216,84,-56,-1,-1,0
1523629864607,458752,84,-56,-1,-1,0
1523629864607,327680,84,-56,-1,-1,0
1523629864647,196608,84,-56,-1,-1,0
1523629864647,196608,84,-56,-1,-1,0
1523629864647,262144,84,-56,-1,-1,0
1523629864647,327680,84,-56,-1,-1,0
1523629864647,327680,84,-56,-1,-1,0
1523629864687,458752,84,-56,-1,-1,0
1523629864687,458752,84,-56,-1,-1,0
1523629864687,524288,84,-56,-1,-1,0
1523629864687,655360,84,-56,-1,-1,0
1523629864687,655360,84,-56,-1,-1,0
1523629864727,524288,84,-56,-1,-1,0
1523629864727,458752,84,-56,-1,-1,0
1523629864727,524288,84,-56,-1,-1,0
1523629864727,524288,84,-56,-1,-1,0
1523629864727,458752,84,-56,-1,-1,0
1523629864767,393216,84,-56,-1,-1,0
1523629864767,262144,84,-56,-1,-1,0
1523629864767,262144,84,-56,-1,-1,0
1523629864767,393216,84,-56,-1,-1,0
1523629864767,524288,84,-56,-1,-1,0
1523629864807,589824,84,-56,-1,-1,0
1523629864807,589824,84,-56,-1,-1,0
1523629864807,720896,84,-56,-1,-1,0
1523629864807,786432,84,-56,-1,-1,0
1523629864807,720896,84,-56,-1,-1,0
1523629864847,655360,84,-56,-1,-1,0
1523629864847,589824,84,-56,-1,-1,0
1523629864847,655360,84,-56,-1,-1,0
1523629864847,655360,84,-56,-1,-1,0
1523629864847,589824,84,-56,-1,-1,0
1523629864888,458752,84,-56,-1,-1,0
1523629864888,-262144,84,-56,-1,-1,0
1523629864888,-2621440,84,-56,-1,-1,0
1523629864888,-6160384,84,-56,-1,-1,0
1523629864888,-7274496,84,-56,-1,-1,0
1523629864927,-3997696,84,-56,-1,-1,0
1523629864927,196608,84,-56,-1,-1,0
1523629864927,1900544,84,-56,-1,-1,0
1523629864927,1703936,84,-56,-1,-1,0
1523629864927,1245184,84,-56,-1,-1,0
1523629864967,851968,84,-56,-1,-1,0
1523629864967,655360,84,-56,-1,-1,0
1523629864967,589824,84,-56,-1,-1,0
1523629864967,524288,84,-56,-1,-1,0
1523629864967,262144,84,-56,-1,-1,0
1523629865007,65536,84,-56,-1,-1,0
1523629865007,0,84,-56,-1,-1,0
1523629865007,0,84,-56,-1,-1,0
1523629865007,-65536,84,-56,-1,-1,0
1523629865007,-196608,84,-56,-1,-1,0
1523629865047,-262144,84,-56,-1,-1,0
1523629865047,-327680,84,-56,-1,-1,0
1523629865047,-524288,84,-56,-1,-1,0
1523629865047,-655360,84,-56,-1,-1,0
1523629865047,-851968,84,-56,-1,-1,0
1523629865087,-1310720,84,-56,-1,-1,0
1523629865087,-1835008,84,-56,-1,-1,0
1523629865087,-2097152,84,-56,-1,-1,0
1523629865087,-2293760,84,-56,-1,-1,0
1523629865087,-2424832,84,-56,-1,-1,0
1523629865127,-2490368,84,-56,-1,-1,0
1523629865127,-2424832,84,-56,-1,-1,0
1523629865127,-2228224,84,-56,-1,-1,0
1523629865127,-1966080,84,-56,-1,-1,0
1523629865127,-1638400,84,-56,-1,-1,0
1523629865167,-1114112,84,-56,-1,-1,0
1523629865167,-589824,84,-56,-1,-1,0
1523629865167,-327680,84,-56,-1,-1,0
1523629865167,-131072,84,-56,-1,-1,0
1523629865167,65536,84,-56,-1,-1,0
1523629865207,262144,84,-56,-1,-1,0
1523629865207,393216,84,-56,-1,-1,0
1523629865207,393216,84,-56,-1,-1,0
1523629865207,393216,84,-56,-1,-1,0
1523629865207,393216,84,-56,-1,-1,0
1523629865247,393216,84,-56,-1,-1,0
1523629865247,458752,84,-56,-1,-1,0
1523629865247,458752,84,-56,-1,-1,0
1523629865247,393216,84,-56,-1,-1,0
1523629865247,458752,84,-56,-1,-1,0
1523629865287,393216,84,-56,-1,-1,0
1523629865287,393216,84,-56,-1,-1,0
1523629865287,458752,84,-56,-1,-1,0
1523629865287,524288,84,-56,-1,-1,0
1523629865287,524288,84,-56,-1,-1,0
1523629865327,524288,84,-56,-1,-1,0
1523629865327,524288,84,-56,-1,-1,0
1523629865327,524288,84,-56,-1,-1,0
1523629865327,458752,84,-56,-1,-1,0
1523629865327,458752,84,-56,-1,-1,0
1523629865367,458752,84,-56,-1,-1,0
1523629865367,458752,84,-56,-1,-1,0
1523629865367,393216,84,-56,-1,-1,0
1523629865367,262144,84,-56,-1,-1,0
1523629865367,327680,84,-56,-1,-1,0
1523629865407,393216,84,-56,-1,-1,0
1523629865407,327680,84,-56,-1,-1,0
1523629865407,327680,84,-56,-1,-1,0
1523629865407,393216,84,-56,-1,-1,0
1523629865407,393216,84,-56,-1,-1,0
1523629865447,393216,84,-56,-1,-1,0
1523629865447,393216,84,-56,-1,-1,0
1523629865447,393216,84,-56,-1,-1,0
1523629865447,458752,84,-56,-1,-1,0
1523629865447,524288,84,-56,-1,-1,0
1523629865487,524288,84,-56,-1,-1,0
1523629865487,458752,84,-56,-1,-1,0
1523629865487,393216,84,-56,-1,-1,0
1523629865487,458752,84,-56,-1,-1,0
1523629865487,393216,84,-56,-1,-1,0
1523629865528,327680,84,-56,-1,-1,0
1523629865528,327680,84,-56,-1,-1,0
1523629865528,393216,84,-56,-1,-1,0
1523629865528,327680,84,-56,-1,-1,0
1523629865528,262144,84,-56,-1,-1,0
1523629865567,262144,84,-56,-1,-1,0
1523629865567,262144,84,-56,-1,-1,0
1523629865567,262144,84,-56,-1,-1,0
1523629865567,327680,84,-56,-1,-1,0
1523629865567,393216,84,-56,-1,-1,0
1523629865607,458752,84,-56,-1,-1,0
1523629865607,524288,84,-56,-1,-1,0
1523629865607,589824,84,-56,-1,-1,0
1523629865607,589824,84,-56,-1,-1,0
1523629865607,589824,84,-56,-1,-1,0
1523629865647,524288,84,-56,-1,-1,0
1523629865647,524288,84,-56,-1,-1,0
1523629865647,524288,84,-56,-1,-1,0
1523629865647,458752,84,-56,-1,-1,0
1523629865647,196608,84,-56,-1,-1,0
1523629865687,-917504,84,-56,-1,-1,0
1523629865687,-3866624,84,-56,-1,-1,0
1523629865687,-7077888,84,-56,-1,-1,0
1523629865687,-6619136,84,-56,-1,-1,0
1523629865687,-2490368,84,-56,-1,-1,0
1523629865727,1114112,84,-56,-1,-1,0
1523629865727,1966080,84,-56,-1,-1,0
1523629865727,1572864,84,-56,-1,-1,0
1523629865727,1048576,84,-56,-1,-1,0
1523629865727,720896,84,-56,-1,-1,0
1523629865767,589824,83,-56,-1,-1,0
1523629865767,524288,83,-56,-1,-1,0
1523629865767,458752,83,-56,-1,-1,0
1523629865767,327680,83,-56,-1,-1,0
1523629865767,196608,83,-56,-1,-1,0
1523629865807,131072,83,-56,-1,-1,0
1523629865807,65536,83,-56,-1,-1,0
1523629865807,65536,83,-56,-1,-1,0
1523629865807,0,83,-56,-1,-1,0
1523629865807,-131072,83,-56,-1,-1,0
1523629865847,-393216,83,-56,-1,-1,0
1523629865847,-589824,83,-56,-1,-1,0
1523629865847,-851968,83,-56,-1,-1,0
1523629865847,-1048576,83,-56,-1,-1,0
1523629865847,-1310720,83,-56,-1,-1,0
1523629865887,-1507328,83,-56,-1,-1,0
1523629865887,-1900544,83,-56,-1,-1,0
1523629865887,-2293760,83,-56,-1,-1,0
1523629865887,-2555904,83,-56,-1,-1,0
1523629865887,-2621440,83,-56,-1,-1,0
1523629865927,-2555904,83,-56,-1,-1,0
1523629865927,-2228224,83,-56,-1,-1,0
1523629865927,-1835008,83,-56,-1,-1,0
1523629865927,-1376256,83,-56,-1,-1,0
1523629865927,-917504,83,-56,-1,-1,0
1523629865967,-458752,83,-56,-1,-1,0
1523629865967,0,83,-56,-1,-1,0
1523629865967,196608,83,-56,-1,-1,0
1523629865967,327680,83,-56,-1,-1,0
1523629865967,393216,83,-56,-1,-1,0
1523629866007,458752,83,-56,-1,-1,0
1523629866007,458752,83,-56,-1,-1,0
1523629866007,458752,83,-56,-1,-1,0
1523629866007,458752,83,-56,-1,-1,0
1523629866007,524288,83,-56,-1,-1,0
1523629866047,524288,83,-56,-1,-1,0
1523629866047,524288,83,-56,-1,-1,0
1523629866047,655360,83,-56,-1,-1,0
1523629866047,720896,83,-56,-1,-1,0
1523629866047,655360,83,-56,-1,-1,0
1523629866087,524288,83,-56,-1,-1,0
1523629866087,524288,83,-56,-1,-1,0
1523629866087,524288,83,-56,-1,-1,0
1523629866087,524288,83,-56,-1,-1,0
1523629866087,589824,83,-56,-1,-1,0
1523629866127,589824,83,-56,-1,-1,0
1523629866127,655360,83,-56,-1,-1,0
1523629866127,655360,83,-56,-1,-1,0
1523629866127,655360,83,-56,-1,-1,0
1523629866127,589824,83,-56,-1,-1,0
1523629866168,589824,83,-56,-1,-1,0
1523629866168,655360,83,-56,-1,-1,0
1523629866168,589824,83,-56,-1,-1,0
1523629866168,524288,83,-56,-1,-1,0
1523629866168,589824,83,-56,-1,-1,0
1523629866207,655360,83,-56,-1,-1,0
1523629866207,655360,83,-56,-1,-1,0
1523629866207,655360,83,-56,-1,-1,0
1523629866207,589824,83,-56,-1,-1,0
1523629866207,589824,83,-56,-1,-1,0
1523629866247,655360,83,-56,-1,-1,0
1523629866247,655360,83,-56,-1,-1,0
1523629866247,655360,83,-56,-1,-1,0
1523629866247,720896,83,-56,-1,-1,0
1523629866247,720896,83,-56,-1,-1,0
1523629866287,720896,83,-56,-1,-1,0
1523629866287,720896,83,-56,-1,-1,0
1523629866287,786432,83,-56,-1,-1,0
1523629866287,851968,83,-56,-1,-1,0
1523629866287,983040,83,-56,-1,-1,0
1523629866327,917504,83,-56,-1,-1,0
1523629866327,851968,83,-56,-1,-1,0
1523629866327,786432,83,-56,-1,-1,0
1523629866327,655360,83,-56,-1,-1,0
1523629866327,393216,83,-56,-1,-1,0
1523629866367,393216,83,-56,-1,-1,0
1523629866367,524288,83,-56,-1,-1,0
1523629866367,655360,83,-56,-1,-1,0
1523629866367,655360,83,-56,-1,-1,0
1523629866367,655360,83,-56,-1,-1,0
1523629866407,720896,83,-56,-1,-1,0
1523629866407,786432,83,-56,-1,-1,0
1523629866407,786432,83,-56,-1,-1,0
1523629866407,786432,83,-56,-1,-1,0
1523629866407,917504,83,-56,-1,-1,0
1523629866447,851968,83,-56,-1,-1,0
1523629866447,786432,83,-56,-1,-1,0
1523629866447,786432,83,-56,-1,-1,0
1523629866447,720896,83,-56,-1,-1,0
1523629866447,65536,83,-56,-1,-1,0
1523629866487,-2228224,83,-56,-1,-1,0
1523629866487,-6029312,83,-56,-1,-1,0
1523629866487,-7536640,83,-56,-1,-1,0
1523629866487,-4456448,83,-56,-1,-1,0
1523629866487,0,83,-56,-1,-1,0
1523629866528,2031616,81,-56,-1,-1,0
1523629866528,1966080,81,-56,-1,-1,0
1523629866528,1441792,81,-56,-1,-1,0
1523629866528,1048576,81,-56,-1,-1,0
1523629866528,786432,81,-56,-1,-1,0
1523629866567,655360,81,-56,-1,-1,0
1523629866567,524288,81,-56,-1,-1,0
1523629866567,458752,81,-56,-1,-1,0
1523629866567,327680,81,-56,-1,-1,0
1523629866567,196608,81,-56,-1,-1,0
1523629866607,65536,81,-56,-1,-1,0
1523629866607,65536,81,-56,-1,-1,0
1523629866607,65536,81,-56,-1,-1,0
1523629866607,0,81,-56,-1,-1,0
1523629866607,-196608,81,-56,-1,-1,0
1523629866647,-393216,81,-56,-1,-1,0
1523629866647,-589824,81,-56,-1,-1,0
1523629866647,-786432,81,-56,-1,-1,0
1523629866647,-1048576,81,-56,-1,-1,0
1523629866647,-1376256,81,-56,-1,-1,0
1523629866687,-1769472,81,-56,-1,-1,0
1523629866687,-2097152,81,-56,-1,-1,0
1523629866687,-2228224,81,-56,-1,-1,0
1523629866687,-2424832,81,-56,-1,-1,0
1523629866687,-2555904,81,-56,-1,-1,0
1523629866727,-2424832,81,-56,-1,-1,0
1523629866727,-2097152,81,-56,-1,-1,0
1523629866727,-1507328,81,-56,-1,-1,0
1523629866727,-983040,81,-56,-1,-1,0
1523629866727,-655360,81,-56,-1,-1,0
1523629866767,-458752,81,-56,-1,-1,0
1523629866767,-131072,81,-56,-1,-1,0
1523629866767,131072,81,-56,-1,-1,0
1523629866767,327680,81,-56,-1,-1,0
1523629866767,458752,81,-56,-1,-1,0
1523629866808,589824,81,-56,-1,-1,0
1523629866808,589824,81,-56,-1,-1,0
1523629866808,458752,81,-56,-1,-1,0
1523629866808,393216,81,-56,-1,-1,0
1523629866808,458752,81,-56,-1,-1,0
1523629866847,458752,81,-56,-1,-1,0
1523629866847,524288,81,-56,-1,-1,0
1523629866847,589824,81,-56,-1,-1,0
1523629866847,655360,81,-56,-1,-1,0
1523629866847,720896,81,-56,-1,-1,0
1523629866887,720896,81,-56,-1,-1,0
1523629866887,655360,81,-56,-1,-1,0
1523629866887,655360,81,-56,-1,-1,0
1523629866887,655360,81,-56,-1,-1,0
1523629866887,589824,81,-56,-1,-1,0
1523629866927,524288,81,-56,-1,-1,0
1523629866927,458752,81,-56,-1,-1,0
1523629866927,458752,81,-56,-1,-1,0
1523629866927,458752,81,-56,-1,-1,0
1523629866927,458752,81,-56,-1,-1,0
1523629866967,524288,81,-56,-1,-1,0
1523629866967,589824,81,-56,-1,-1,0
1523629866967,589824,81,-56,-1,-1,0
1523629866967,524288,81,-56,-1,-1,0
1523629866967,524288,81,-56,-1,-1,0
1523629867007,589824,81,-56,-1,-1,0
1523629867007,655360,81,-56,-1,-1,0
1523629867007,589824,81,-56,-1,-1,0
1523629867007,524288,81,-56,-1,-1,0
1523629867007,524288,81,-56,-1,-1,0
1523629867047,589824,81,-56,-1,-1,0
1523629867047,655360,81,-56,-1,-1,0
1523629867047,589824,81,-56,-1,-1,0
1523629867047,589824,81,-56,-1,-1,0
1523629867047,655360,81,-56,-1,-1,0
1523629867087,655360,81,-56,-1,-1,0
1523629867087,655360,81,-56,-1,-1,0
1523629867087,720896,81,-56,-1,-1,0
1523629867087,655360,81,-56,-1,-1,0
1523629867087,589824,81,-56,-1,-1,0
1523629867127,458752,81,-56,-1,-1,0
1523629867127,393216,81,-56,-1,-1,0
1523629867127,393216,81,-56,-1,-1,0
1523629867127,393216,81,-56,-1,-1,0
1523629867127,458752,81,-56,-1,-1,0
1523629867167,524288,81,-56,-1,-1,0
1523629867167,655360,81,-56,-1,-1,0
1523629867167,720896,81,-56,-1,-1,0
1523629867167,720896,81,-56,-1,-1,0
1523629867167,720896,81,-56,-1,-1,0
1523629867207,720896,81,-56,-1,-1,0
1523629867207,720896,81,-56,-1,-1,0
1523629867207,720896,81,-56,-1,-1,0
1523629867207,720896,81,-56,-1,-1,0
1523629867207,786432,81,-56,-1,-1,0
1523629867248,786432,81,-56,-1,-1,0
1523629867248,131072,81,-56,-1,-1,0
1523629867248,-2162688,81,-56,-1,-1,0
1523629867248,-5898240,81,-56,-1,-1,0
1523629867248,-7667712,81,-56,-1,-1,0
1523629867287,-4784128,81,-56,-1,-1,0
1523629867287,-131072,81,-56,-1,-1,0
1523629867287,2031616,81,-56,-1,-1,0
1523629867287,2031616,81,-56,-1,-1,0
1523629867287,1572864,81,-56,-1,-1,0
1523629867327,1179648,81,-56,-1,-1,0
1523629867327,851968,81,-56,-1,-1,0
1523629867327,655360,81,-56,-1,-1,0
1523629867327,589824,81,-56,-1,-1,0
1523629867327,458752,81,-56,-1,-1,0
1523629867367,327680,81,-56,-1,-1,0
1523629867367,262144,81,-56,-1,-1,0
1523629867367,196608,81,-56,-1,-1,0
1523629867367,131072,81,-56,-1,-1,0
1523629867367,0,81,-56,-1,-1,0
1523629867407,0,81,-56,-1,-1,0
1523629867407,-196608,81,-56,-1,-1,0
1523629867407,-458752,81,-56,-1,-1,0
1523629867407,-786432,81,-56,-1,-1,0
1523629867407,-983040,81,-56,-1,-1,0
1523629867448,-1310720,81,-56,-1,-1,0
1523629867448,-1769472,81,-56,-1,-1,0
1523629867448,-2228224,81,-56,-1,-1,0
1523629867448,-2555904,81,-56,-1,-1,0
1523629867448,-2752512,81,-56,-1,-1,0
1523629867487,-2883584,81,-56,-1,-1,0
1523629867487,-2883584,81,-56,-1,-1,0
1523629867487,-2752512,81,-56,-1,-1,0
1523629867487,-2424832,81,-56,-1,-1,0
1523629867487,-1966080,81,-56,-1,-1,0
1523629867527,-1376256,81,-56,-1,-1,0
1523629867527,-786432,81,-56,-1,-1,0
1523629867527,-327680,81,-56,-1,-1,0
1523629867527,0,81,-56,-1,-1,0
1523629867527,327680,81,-56,-1,-1,0
1523629867567,458752,81,-56,-1,-1,0
1523629867567,524288,81,-56,-1,-1,0
1523629867567,458752,81,-56,-1,-1,0
1523629867567,524288,81,-56,-1,-1,0
1523629867567,524288,81,-56,-1,-1,0
1523629867607,589824,81,-56,-1,-1,0
1523629867607,655360,81,-56,-1,-1,0
1523629867607,720896,81,-56,-1,-1,0
1523629867607,720896,81,-56,-1,-1,0
1523629867607,720896,81,-56,-1,-1,0
1523629867647,720896,81,-56,-1,-1,0
1523629867647,851968,81,-56,-1,-1,0
1523629867647,851968,81,-56,-1,-1,0
1523629867647,655360,81,-56,-1,-1,0
1523629867647,589824,81,-56,-1,-1,0
1523629867687,589824,81,-56,-1,-1,0
1523629867687,655360,81,-56,-1,-1,0
1523629867687,589824,81,-56,-1,-1,0
1523629867687,589824,81,-56,-1,-1,0
1523629867687,589824,81,-56,-1,-1,0
1523629867727,589824,81,-56,-1,-1,0
1523629867727,589824,81,-56,-1,-1,0
1523629867727,655360,81,-56,-1,-1,0
1523629867727,589824,81,-56,-1,-1,0
1523629867727,524288,81,-56,-1,-1,0
1523629867767,524288,81,-56,-1,-1,0
1523629867767,589824,81,-56,-1,-1,0
1523629867767,655360,81,-56,-1,-1,0
1523629867767,655360,81,-56,-1,-1,0
1523629867767,589824,81,-56,-1,-1,0
1523629867808,589824,81,-56,-1,-1,0
1523629867808,589824,81,-56,-1,-1,0
1523629867808,524288,81,-56,-1,-1,0
1523629867808,458752,81,-56,-1,-1,0
1523629867808,458752,81,-56,-1,-1,0
1523629867847,393216,81,-56,-1,-1,0
1523629867847,393216,81,-56,-1,-1,0
1523629867847,458752,81,-56,-1,-1,0
1523629867847,589824,81,-56,-1,-1,0
1523629867847,655360,81,-56,-1,-1,0
1523629867887,786432,81,-56,-1,-1,0
1523629867887,720896,81,-56,-1,-1,0
1523629867887,720896,81,-56,-1,-1,0
1523629867887,786432,81,-56,-1,-1,0
1523629867887,851968,81,-56,-1,-1,0
1523629867927,851968,81,-56,-1,-1,0
1523629867927,786432,81,-56,-1,-1,0
1523629867927,720896,81,-56,-1,-1,0
1523629867927,720896,81,-56,-1,-1,0
1523629867927,655360,81,-56,-1,-1,0
1523629867968,131072,81,-56,-1,-1,0
1523629867968,-1572864,81,-56,-1,-1,0
1523629867968,-4849664,81,-56,-1,-1,0
1523629867968,-6750208,81,-56,-1,-1,0
1523629867968,-4325376,81,-56,-1,-1,0
1523629868007,131072,82,-56,-1,-1,0
1523629868007,2424832,82,-56,-1,-1,0
1523629868007,2424832,82,-56,-1,-1,0
1523629868007,1703936,82,-56,-1,-1,0
1523629868007,1048576,82,-56,-1,-1,0
1523629868047,720896,82,-56,-1,-1,0
1523629868047,589824,82,-56,-1,-1,0
1523629868047,524288,82,-56,-1,-1,0
1523629868047,393216,82,-56,-1,-1,0
1523629868047,327680,82,-56,-1,-1,0
1523629868088,262144,82,-56,-1,-1,0
1523629868088,131072,82,-56,-1,-1,0
1523629868088,65536,82,-56,-1,-1,0
1523629868088,0,82,-56,-1,-1,0
1523629868088,-65536,82,-56,-1,-1,0
1523629868127,-262144,82,-56,-1,-1,0
1523629868127,-393216,82,-56,-1,-1,0
1523629868127,-524288,82,-56,-1,-1,0
1523629868127,-720896,82,-56,-1,-1,0
1523629868127,-1114112,82,-56,-1,-1,0
1523629868167,-1507328,82,-56,-1,-1,0
1523629868167,-1900544,82,-56,-1,-1,0
1523629868167,-2293760,82,-56,-1,-1,0
1523629868167,-2555904,82,-56,-1,-1,0
1523629868167,-2621440,82,-56,-1,-1,0
1523629868208,-2490368,82,-56,-1,-1,0
1523629868208,-2293760,82,-56,-1,-1,0
1523629868208,-2031616,82,-56,-1,-1,0
1523629868208,-1441792,82,-56,-1,-1,0
1523629868208,-917504,82,-56,-1,-1,0
1523629868247,-458752,82,-56,-1,-1,0
1523629868247,-131072,82,-56,-1,-1,0
1523629868247,65536,82,-56,-1,-1,0
1523629868247,262144,82,-56,-1,-1,0
1523629868247,327680,82,-56,-1,-1,0
1523629868287,458752,82,-56,-1,-1,0
1523629868287,589824,82,-56,-1,-1,0
1523629868287,589824,82,-56,-1,-1,0
1523629868287,655360,82,-56,-1,-1,0
1523629868287,655360,82,-56,-1,-1,0
1523629868327,720896,82,-56,-1,-1,0
1523629868327,786432,82,-56,-1,-1,0
1523629868327,851968,82,-56,-1,-1,0
1523629868327,851968,82,-56,-1,-1,0
1523629868327,720896,82,-56,-1,-1,0
1523629868367,720896,82,-56,-1,-1,0
1523629868367,786432,82,-56,-1,-1,0
1523629868367,720896,82,-56,-1,-1,0
1523629868367,589824,82,-56,-1,-1,0
1523629868367,589824,82,-56,-1,-1,0
1523629868407,655360,82,-56,-1,-1,0
1523629868407,720896,82,-56,-1,-1,0
1523629868407,655360,82,-56,-1,-1,0
1523629868407,589824,82,-56,-1,-1,0
1523629868407,524288,82,-56,-1,-1,0
1523629868448,589824,82,-56,-1,-1,0
1523629868448,655360,82,-56,-1,-1,0
1523629868448,589824,82,-56,-1,-1,0
1523629868448,524288,82,-56,-1,-1,0
1523629868448,589824,82,-56,-1,-1,0
1523629868487,589824,82,-56,-1,-1,0
1523629868487,655360,82,-56,-1,-1,0
1523629868487,655360,82,-56,-1,-1,0
1523629868487,655360,82,-56,-1,-1,0
1523629868487,655360,82,-56,-1,-1,0
1523629868527,720896,82,-56,-1,-1,0
1523629868527,720896,82,-56,-1,-1,0
1523629868527,786432,82,-56,-1,-1,0
1523629868527,786432,82,-56,-1,-1,0
1523629868527,786432,82,-56,-1,-1,0
1523629868567,655360,82,-56,-1,-1,0
1523629868567,589824,82,-56,-1,-1,0
1523629868567,458752,82,-56,-1,-1,0
1523629868567,458752,82,-56,-1,-1,0
1523629868567,524288,82,-56,-1,-1,0
1523629868607,589824,82,-56,-1,-1,0
1523629868607,655360,82,-56,-1,-1,0
1523629868607,720896,82,-56,-1,-1,0
1523629868607,786432,82,-56,-1,-1,0
1523629868607,720896,82,-56,-1,-1,0
1523629868648,720896,82,-56,-1,-1,0
1523629868648,720896,82,-56,-1,-1,0
1523629868648,720896,82,-56,-1,-1,0
1523629868648,720896,82,-56,-1,-1,0
1523629868648,786432,82,-56,-1,-1,0
1523629868687,786432,82,-56,-1,-1,0
1523629868687,655360,82,-56,-1,-1,0
1523629868687,-65536,82,-56,-1,-1,0
1523629868687,-2490368,82,-56,-1,-1,0
1523629868687,-5963776,82,-56,-1,-1,0
1523629868728,-6881280,82,-56,-1,-1,0
1523629868728,-3538944,82,-56,-1,-1,0
1523629868728,589824,82,-56,-1,-1,0
1523629868728,2162688,82,-56,-1,-1,0
1523629868728,1900544,82,-56,-1,-1,0
1523629868767,1376256,82,-56,-1,-1,0
1523629868767,917504,82,-56,-1,-1,0
1523629868767,720896,82,-56,-1,-1,0
1523629868767,589824,82,-56,-1,-1,0
1523629868767,524288,82,-56,-1,-1,0
1523629868807,458752,82,-56,-1,-1,0
1523629868807,393216,82,-56,-1,-1,0
1523629868807,327680,82,-56,-1,-1,0
1523629868807,196608,82,-56,-1,-1,0
1523629868807,131072,82,-56,-1,-1,0
1523629868847,0,82,-56,-1,-1,0
1523629868847,-131072,82,-56,-1,-1,0
1523629868847,-262144,82,-56,-1,-1,0
1523629868847,-393216,82,-56,-1,-1,0
1523629868847,-589824,82,-56,-1,-1,0
1523629868887,-917504,82,-56,-1,-1,0
1523629868887,-1179648,82,-56,-1,-1,0
1523629868887,-1572864,82,-56,-1,-1,0
1523629868887,-1900544,82,-56,-1,-1,0
1523629868887,-2162688,82,-56,-1,-1,0
1523629868927,-2359296,82,-56,-1,-1,0
1523629868927,-2490368,82,-56,-1,-1,0
1523629868927,-2424832,82,-56,-1,-1,0
1523629868927,-2162688,82,-56,-1,-1,0
1523629868927,-1835008,82,-56,-1,-1,0
1523629868967,-1441792,82,-56,-1,-1,0
1523629868967,-1048576,82,-56,-1,-1,0
1523629868967,-524288,82,-56,-1,-1,0
1523629868967,-131072,82,-56,-1,-1,0
1523629868967,65536,82,-56,-1,-1,0
1523629869007,196608,82,-56,-1,-1,0
1523629869007,327680,82,-56,-1,-1,0
1523629869007,458752,82,-56,-1,-1,0
1523629869007,458752,82,-56,-1,-1,0
1523629869007,524288,82,-56,-1,-1,0
1523629869047,524288,82,-56,-1,-1,0
1523629869047,524288,82,-56,-1,-1,0
1523629869047,524288,82,-56,-1,-1,0
1523629869047,524288,82,-56,-1,-1,0
1523629869047,524288,82,-56,-1,-1,0
1523629869087,589824,82,-56,-1,-1,0
1523629869087,655360,82,-56,-1,-1,0
1523629869087,720896,82,-56,-1,-1,0
1523629869087,720896,82,-56,-1,-1,0
1523629869087,655360,82,-56,-1,-1,0
1523629869127,589824,82,-56,-1,-1,0
1523629869127,524288,82,-56,-1,-1,0
1523629869127,589824,82,-56,-1,-1,0
1523629869127,655360,82,-56,-1,-1,0
1523629869127,589824,82,-56,-1,-1,0
1523629869167,458752,82,-56,-1,-1,0
1523629869167,458752,82,-56,-1,-1,0
1523629869167,458752,82,-56,-1,-1,0
1523629869167,524288,82,-56,-1,-1,0
1523629869167,655360,82,-56,-1,-1,0
1523629869207,655360,82,-56,-1,-1,0
1523629869207,589824,82,-56,-1,-1,0
1523629869207,524288,82,-56,-1,-1,0
1523629869207,589824,82,-56,-1,-1,0
1523629869207,589824,82,-56,-1,-1,0
1523629869247,589824,82,-56,-1,-1,0
1523629869247,589824,82,-56,-1,-1,0
1523629869247,655360,82,-56,-1,-1,0
1523629869247,720896,82,-56,-1,-1,0
1523629869247,720896,82,-56,-1,-1,0
1523629869287,786432,82,-56,-1,-1,0
1523629869287,655360,82,-56,-1,-1,0
1523629869287,524288,82,-56,-1,-1,0
1523629869287,458752,82,-56,-1,-1,0
1523629869287,327680,82,-56,-1,-1,0
1523629869327,327680,82,-56,-1,-1,0
1523629869327,458752,82,-56,-1,-1,0
1523629869327,589824,82,-56,-1,-1,0
1523629869327,655360,82,-56,-1,-1,0
1523629869327,786432,82,-56,-1,-1,0
1523629869368,786432,82,-56,-1,-1,0
1523629869368,786432,82,-56,-1,-1,0
1523629869368,720896,82,-56,-1,-1,0
1523629869368,786432,82,-56,-1,-1,0
1523629869368,851968,82,-56,-1,-1,0
1523629869407,786432,82,-56,-1,-1,0
1523629869407,655360,82,-56,-1,-1,0
1523629869407,720896,82,-56,-1,-1,0
1523629869407,589824,82,-56,-1,-1,0
1523629869407,-327680,82,-56,-1,-1,0
1523629869447,-3080192,82,-56,-1,-1,0
1523629869447,-6619136,82,-56,-1,-1,0
1523629869447,-7077888,82,-56,-1,-1,0
1523629869447,-3276800,82,-56,-1,-1,0
1523629869447,917504,82,-56,-1,-1,0
1523629869487,2293760,82,-56,-1,-1,0
1523629869487,1900544,82,-56,-1,-1,0
1523629869487,1245184,82,-56,-1,-1,0
1523629869487,786432,82,-56,-1,-1,0
1523629869487,655360,82,-56,-1,-1,0
1523629869527,524288,82,-56,-1,-1,0
1523629869527,458752,82,-56,-1,-1,0
1523629869527,393216,82,-56,-1,-1,0
1523629869527,393216,82,-56,-1,-1,0
1523629869527,327680,82,-56,-1,-1,0
1523629869567,131072,82,-56,-1,-1,0
1523629869567,65536,82,-56,-1,-1,0
1523629869567,0,82,-56,-1,-1,0
1523629869567,0,82,-56,-1,-1,0
1523629869567,-196608,82,-56,-1,-1,0
1523629869607,-524288,82,-56,-1,-1,0
1523629869607,-786432,82,-56,-1,-1,0
1523629869607,-983040,82,-56,-1,-1,0
1523629869607,-1245184,82,-56,-1,-1,0
1523629869607,-1507328,82,-56,-1,-1,0
1523629869647,-1966080,82,-56,-1,-1,0
1523629869647,-2293760,82,-56,-1,-1,0
1523629869647,-2490368,82,-56,-1,-1,0
1523629869647,-2555904,82,-56,-1,-1,0
1523629869647,-2490368,82,-56,-1,-1,0
1523629869687,-2228224,82,-56,-1,-1,0
1523629869687,-1835008,82,-56,-1,-1,0
1523629869687,-1310720,82,-56,-1,-1,0
1523629869687,-786432,82,-56,-1,-1,0
1523629869687,-393216,82,-56,-1,-1,0
1523629869727,0,82,-56,-1,-1,0
1523629869727,196608,82,-56,-1,-1,0
1523629869727,327680,82,-56,-1,-1,0
1523629869727,458752,82,-56,-1,-1,0
1523629869727,589824,82,-56,-1,-1,0
1523629869767,524288,82,-56,-1,-1,0
1523629869767,458752,82,-56,-1,-1,0
1523629869767,524288,82,-56,-1,-1,0
1523629869767,524288,82,-56,-1,-1,0
1523629869767,524288,82,-56,-1,-1,0
1523629869807,589824,82,-56,-1,-1,0
1523629869807,589824,82,-56,-1,-1,0
1523629869807,589824,82,-56,-1,-1,0
1523629869807,589824,82,-56,-1,-1,0
1523629869807,589824,82,-56,-1,-1,0
1523629869847,589824,82,-56,-1,-1,0
1523629869847,655360,82,-56,-1,-1,0
1523629869847,655360,82,-56,-1,-1,0
1523629869847,720896,82,-56,-1,-1,0
1523629869847,655360,82,-56,-1,-1,0
1523629869887,589824,82,-56,-1,-1,0
1523629869887,589824,82,-56,-1,-1,0
1523629869887,589824,82,-56,-1,-1,0
1523629869887,524288,82,-56,-1,-1,0
1523629869887,458752,82,-56,-1,-1,0
1523629869927,524288,82,-56,-1,-1,0
1523629869927,524288,82,-56,-1,-1,0
1523629869927,524288,82,-56,-1,-1,0
1523629869927,524288,82,-56,-1,-1,0
1523629869927,524288,82,-56,-1,-1,0
1523629869967,589824,82,-56,-1,-1,0
1523629869967,524288,82,-56,-1,-1,0
1523629869967,524288,82,-56,-1,-1,0
1523629869967,589824,82,-56,-1,-1,0
1523629869967,524288,82,-56,-1,-1,0
1523629870008,458752,82,-56,-1,-1,0
1523629870008,524288,82,-56,-1,-1,0
1523629870008,589824,82,-56,-1,-1,0
1523629870008,655360,82,-56,-1,-1,0
1523629870008,720896,82,-56,-1,-1,0
1523629870047,655360,82,-56,-1,-1,0
1523629870047,655360,82,-56,-1,-1,0
1523629870047,589824,82,-56,-1,-1,0
1523629870047,393216,82,-56,-1,-1,0
1523629870047,196608,82,-56,-1,-1,0
1523629870087,196608,82,-56,-1,-1,0
1523629870087,327680,82,-56,-1,-1,0
1523629870087,458752,82,-56,-1,-1,0
1523629870087,524288,82,-56,-1,-1,0
1523629870087,589824,82,-56,-1,-1,0
1523629870127,655360,82,-56,-1,-1,0
1523629870127,655360,82,-56,-1,-1,0
1523629870127,655360,82,-56,-1,-1,0
1523629870127,720896,82,-56,-1,-1,0
1523629870127,786432,82,-56,-1,-1,0
1523629870167,786432,82,-56,-1,-1,0
1523629870167,720896,82,-56,-1,-1,0
1523629870167,655360,82,-56,-1,-1,0
1523629870167,393216,82,-56,-1,-1,0
1523629870167,-720896,82,-56,-1,-1,0
1523629870207,-3670016,81,-56,-1,-1,0
1523629870207,-7274496,81,-56,-1,-1,0
1523629870207,-7274496,81,-56,-1,-1,0
1523629870207,-3145728,81,-56,-1,-1,0
1523629870207,851968,81,-56,-1,-1,0
1523629870247,2031616,81,-56,-1,-1,0
1523629870247,1769472,81,-56,-1,-1,0
1523629870247,1179648,81,-56,-1,-1,0
1523629870247,720896,81,-56,-1,-1,0
1523629870247,524288,81,-56,-1,-1,0
1523629870287,458752,81,-56,-1,-1,0
1523629870287,327680,81,-56,-1,-1,0
1523629870287,327680,81,-56,-1,-1,0
1523629870287,327680,81,-56,-1,-1,0
1523629870287,196608,81,-56,-1,-1,0
1523629870327,65536,81,-56,-1,-1,0
1523629870327,0,81,-56,-1,-1,0
1523629870327,-65536,81,-56,-1,-1,0
1523629870327,-262144,81,-56,-1,-1,0
1523629870327,-393216,81,-56,-1,-1,0
1523629870367,-524288,81,-56,-1,-1,0
1523629870367,-786432,81,-56,-1,-1,0
1523629870367,-1048576,81,-56,-1,-1,0
1523629870367,-1376256,81,-56,-1,-1,0
1523629870367,-1703936,81,-56,-1,-1,0
1523629870407,-2097152,81,-56,-1,-1,0
1523629870407,-2424832,81,-56,-1,-1,0
1523629870407,-2686976,81,-56,-1,-1,0
1523629870407,-2752512,81,-56,-1,-1,0
1523629870407,-2686976,81,-56,-1,-1,0
1523629870447,-2490368,81,-56,-1,-1,0
1523629870447,-2097152,81,-56,-1,-1,0
1523629870447,-1507328,81,-56,-1,-1,0
1523629870447,-917504,81,-56,-1,-1,0
1523629870447,-458752,81,-56,-1,-1,0
1523629870487,-131072,81,-56,-1,-1,0
1523629870487,131072,81,-56,-1,-1,0
1523629870487,262144,81,-56,-1,-1,0
1523629870487,458752,81,-56,-1,-1,0
1523629870487,589824,81,-56,-1,-1,0
1523629870527,720896,81,-56,-1,-1,0
1523629870527,655360,81,-56,-1,-1,0
1523629870527,655360,81,-56,-1,-1,0
1523629870527,589824,81,-56,-1,-1,0
1523629870527,524288,81,-56,-1,-1,0
1523629870567,524288,81,-56,-1,-1,0
1523629870567,589824,81,-56,-1,-1,0
1523629870567,655360,81,-56,-1,-1,0
1523629870567,655360,81,-56,-1,-1,0
1523629870567,720896,81,-56,-1,-1,0
1523629870607,786432,81,-56,-1,-1,0
1523629870607,786432,81,-56,-1,-1,0
1523629870607,851968,81,-56,-1,-1,0
1523629870607,786432,81,-56,-1,-1,0
1523629870607,720896,81,-56,-1,-1,0
1523629870648,720896,81,-56,-1,-1,0
1523629870648,720896,81,-56,-1,-1,0
1523629870648,720896,81,-56,-1,-1,0
1523629870648,655360,81,-56,-1,-1,0
1523629870648,655360,81,-56,-1,-1,0
1523629870687,720896,81,-56,-1,-1,0
1523629870687,720896,81,-56,-1,-1,0
1523629870687,720896,81,-56,-1,-1,0
1523629870687,720896,81,-56,-1,-1,0
1523629870687,786432,81,-56,-1,-1,0
