time,bvp
0.0,3.92599690613816
0.0039059970045336786,4.822312203014871
0.007811994009067357,5.74928659376513
0.011717991013601036,6.733115539369421
0.015623988018134714,7.79760215857252
0.019529985022668395,8.963082448333926
0.02343598202720207,10.245496657409056
0.02734197903173575,11.655645411449317
0.03124797603626943,13.19866034703332
0.03515397304080311,14.87370886735625
0.03905997004533679,16.673941739365645
0.04296596704987046,18.58668119840644
0.04687196405440414,20.59383659190158
0.05077796105893782,22.672524913489948
0.0546839580634715,24.79586531215141
0.05858995506800518,26.933910165431012
0.06249595207253886,29.05467082433042
0.06640194907707253,31.125193789796047
0.07030794608160622,33.11264286642349
0.07421394308613989,34.98534464584231
0.07811994009067358,36.71375829137332
0.08202593709520725,38.2713357406182
0.08593193409974093,39.63524477168612
0.08983793110427461,40.786934517044465
0.09374392810880829,41.7125305713389
0.09764992511334196,42.403054451044405
0.10155592211787565,42.85446947787155
0.10546191912240932,43.06756187092537
0.109367916126943,43.04767169523566
0.11327391313147668,42.80429313806846
0.11717991013601035,42.350567245223054
0.12108590714054404,41.702692686980626
0.12499190414507771,40.87928133751444
0.1288979011496114,39.900685496651484
0.13280389815414506,38.78832255926035
0.13670989515867876,37.564020982279935
0.14061589216321244,36.24940867622266
0.1445218891677461,34.86536163727342
0.14842788617227978,33.4315269252579
0.15233388317681346,31.965930167209038
0.15623988018134716,30.484673801625743
0.16014587718588083,29.001728434140357
0.1640518741904145,27.528816089355093
0.16795787119494818,26.075380929565117
0.17186386819948185,24.64864025576685
0.17576986520401552,23.253706369378524
0.17967586220854923,21.893768187729282
0.1835818592130829,20.57032038125162
0.18748785621761657,19.28342722192541
0.19139385322215025,18.032008268198968
0.19529985022668392,16.814133412972854
0.19920584723121762,15.6273156278675
0.2031118442357513,14.468790880203565
0.20701784124028497,13.33577610550483
0.21092383824481864,12.2256977130543
0.2148298352493523,11.136384811637882
0.218735832253886,10.066223097395607
0.2226418292584197,9.014267081717987
0.22654782626295336,7.980309997739908
0.23045382326748703,6.964912260942027
0.2343598202720207,5.96939073339112
0.23826581727655438,4.995772222155859
0.24217181428108808,4.046715609457685
0.24607781128562176,3.1254077529501867
0.24998380829015543,2.2354388051439043
0.25388980529468913,1.3806628848699127
0.2577958022992228,0.5650501009614897
0.2617017993037565,-0.20746420500538626
0.2656077963082901,-0.9331274432580215
0.2695137933128238,-1.6085099025393776
0.2734197903173575,-2.23063253060509
0.27732578732189117,-2.7970785762604047
0.28123178432642487,-3.306086066692523
0.2851377813309585,-3.7566189003875707
0.2890437783354922,-4.148415154782266
0.2929497753400259,-4.482012012711411
0.29685577234455957,-4.758747478954201
0.30076176934909327,-4.980739767068826
0.3046677663536269,-5.150845869948966
0.3085737633581606,-5.272601371477633
0.3124797603626943,-5.350144001334571
0.31638575736722796,-5.388123774177419
0.32029175437176166,-5.391602785475155
0.3241977513762953,-5.365947860142064
0.328103748380829,-5.316719270909087
0.33200974538536265,-5.249558668003448
0.33591574238989635,-5.170079199576013
0.33982173939443006,-5.0837605648451865
0.3437277363989637,-4.995851442012054
0.3476337334034974,-4.9112813843980465
0.35153973040803105,-4.8345838950557924
0.35544572741256475,-4.769831986293754
0.35935172441709845,-4.720587119560496
0.3632577214216321,-4.689862015346354
0.3671637184261658,-4.680097433173316
0.37106971543069944,-4.693152657786995
0.37497571243523314,-4.730309097156962
0.37888170943976685,-4.792286106975845
0.3827877064443005,-4.87926790940762
0.3866937034488342,-4.990940273543561
0.39059970045336784,-5.126535472534867
0.39450569745790154,-5.284883927515816
0.39841169446243524,-5.464470889859446
0.4023176914669689,-5.663496498637877
0.4062236884715026,-5.879937576168772
0.41012968547603623,-6.11160958734305
0.41403568248056993,-6.356227283701077
0.41794167948510363,-6.611462676304175
0.4218476764896373,-6.874999127517595
0.425753673494171,-7.144580516028076
0.4296596704987046,-7.418054607011574
0.43356566750323833,-7.693409945781215
0.437471664507772,-7.968805784138156
0.4413776615123057,-8.24259473994075
0.4452836585168394,-8.513338078394401
0.449189655521373,-8.779813684997485
0.4530956525259067,-9.04101697215952
0.45700164953044037,-9.296155121838732
0.46090764653497407,-9.544635213109101
0.46481364353950777,-9.786046914694326
0.4687196405440414,-10.02014053682424
0.4726256375485751,-10.24680133312569
0.47653163455310876,-10.466021020621199
0.48043763155764246,-10.677867543262531
0.48434362856217616,-10.882454140769449
0.4882496255667098,-11.079908798952097
0.4921556225712435,-11.270345149376851
0.49606161957577716,-11.453835854504172
0.49996761658031086,-11.63038945863346
0.5038736135848445,-11.799931604501433
0.5077796105893783,-11.962291409668326
0.5116856075939119,-12.117193665627925
0.5155916045984456,-12.264257366119535
0.5194976016029792,-12.403000890373319
0.523403598607513,-12.532853963895871
0.5273095956120466,-12.653176296833916
0.5312155926165802,-12.763282561952945
0.535121589621114,-12.862473126038498
0.5390275866256476,-12.950069696551797
0.5429335836301813,-13.025454797345098
0.546839580634715,-13.088113751861968
0.5507455776392487,-13.137677638922652
0.5546515746437823,-13.173965504734952
0.558557571648316,-13.197023975017483
0.5624635686528497,-13.207162322503706
0.5663695656573834,-13.204981016182645
0.570275562661917,-13.191391816734173
0.5741815596664508,-13.167627593405978
0.5780875566709844,-13.135240224754197
0.5819935536755181,-13.09608521063767
0.5858995506800518,-13.052291964395033
0.5898055476845855,-13.006219168069665
0.5937115446891191,-12.96039505254602
0.5976175416936528,-12.917442997965319
0.6015235386981865,-12.879993424063118
0.6054295357027202,-12.850583538378244
0.6093355327072538,-12.83154711325088
0.6132415297117876,-12.82489704867628
0.6171475267163212,-12.83220402439925
0.6210535237208549,-12.854475027228949
0.6249595207253886,-12.8920359344471
0.6288655177299223,-12.944422618255587
0.6327715147344559,-13.010285188164179
0.6366775117389896,-13.087309989489917
0.6405835087435233,-13.172163811772984
0.644489505748057,-13.260464420475747
0.6483955027525906,-13.346781003875748
0.6523014997571244,-13.424667426097969
0.656207496761658,-13.486730305542205
0.6601134937661917,-13.524732912135274
0.6640194907707253,-13.529734721443832
0.6679254877752591,-13.492265211161397
0.6718314847797927,-13.402529175790887
0.6757374817843264,-13.25063951526681
0.6796434787888601,-13.026872175211588
0.6835494757933938,-12.721936736749464
0.6874554727979274,-12.327255130073217
0.6913614698024612,-11.835240134765723
0.6952674668069948,-11.239564783291149
0.6991734638115285,-10.53541354638725
0.7030794608160621,-9.719706283484632
0.7069854578205959,-8.791286406739587
0.7108914548251295,-7.75106553620025
0.7147974518296631,-6.602118100394621
0.7187034488341969,-5.349720827150315
0.7226094458387305,-4.001333821990517
0.7265154428432642,-2.5665218787081128
0.730421439847798,-1.0568167291320778
0.7343274368523316,0.514476971064982
0.7382334338568652,2.1325270976090738
0.7421394308613989,3.7812642583723948
0.7460454278659326,5.443708408073956
0.7499514248704663,7.102322218338769
0.7538574218749999,8.739380584187343
0.7577634188795337,10.33734509468618
0.7616694158840673,11.879232170142467
0.765575412888601,13.34896387187199
0.7694814098931346,14.73169110461624
0.7733874068976684,16.01408001945044
0.777293403902202,17.184553834130078
0.7811994009067357,18.233483953233577
0.7851053979112694,19.153326118033903
0.7890113949158031,19.938699266434057
0.7929173919203367,20.586406755920457
0.7968233889248705,21.095401519147444
0.8007293859294041,21.466698510109797
0.8046353829339378,21.703239395319255
0.8085413799384714,21.809715796521505
0.8124473769430052,21.792358459495443
0.8163533739475388,21.658700481139775
0.8202593709520725,21.417323161966287
0.8241653679566062,21.077593164305892
0.8280713649611399,20.6493994614026
0.8319773619656735,20.14289808345625
0.8358833589702073,19.568271937144544
0.8397893559747409,18.935512036065994
0.8436953529792746,18.25422537686887
0.8476013499838082,17.533473478445302
0.851507346988342,16.781644319211274
0.8554133439928756,16.006359108890983
0.8593193409974093,15.214414062402811
0.863225338001943,14.411756146273238
0.8671313350064767,13.603490679051664
0.8710373320110103,12.793917716874276
0.874943329015544,11.986593367290705
0.8788493260200777,11.184411565336376
0.8827553230246113,10.389701425177199
0.886661320029145,9.604335051273706
0.8905673170336788,8.829840651402717
0.8944733140382124,8.067515930809945
0.898379311042746,7.31853704796009
0.9022853080472798,6.584058859160062
0.9061913050518134,5.865302749517059
0.9100973020563471,5.163629016232424
0.9140032990608807,4.4805915101556835
0.9179092960654145,3.8179730248256614
0.9218152930699481,3.1778007208253545
0.9257212900744818,2.5623416598879714
0.9296272870790155,1.974079272070306
0.9335332840835492,1.4156722670000441
0.9374392810880828,0.8898981062616675
0.9413452780926166,0.39958366154861974
0.9452512750971502,-0.05247392063315155
0.9491572721016839,-0.4635928509092792
0.9530632691062175,-0.8312953774177259
0.9569692661107513,-1.153396039818944
0.9608752631152849,-1.4280861164239405
0.9647812601198186,-1.6540110913346533
0.9686872571243523,-1.8303382777751975
0.972593254128886,-1.9568121307706647
0.9764992511334196,-2.0337952504315506
0.9804052481379534,-2.0622935980306343
0.984311245142487,-2.04396500151391
0.9882172421470207,-1.981110595448497
0.9921232391515543,-1.876649403386673
0.9960292361560881,-1.7340768098988806
0.9999352331606217,-1.5574081683613217
1.0038412301651554,-1.3511092343082363
1.007747227169689,-1.1200154905658317
1.0116532241742227,-0.8692427300057141
1.0155592211787565,-0.6040914779846275
1.0194652181832902,-0.3299479656123275
1.0233712151878238,-0.05218440593636868
1.0272772121923575,0.22393872032695583
1.031183209196891,0.4933657905310866
1.0350892062014247,0.75133220168008
1.0389952032059584,0.9934414627793421
1.0429012002104923,1.2157314402961341
1.046807197215026,1.414728351508157
1.0507131942195596,1.5874875050717139
1.0546191912240932,1.7316202112351673
1.0585251882286268,1.8453067119269828
1.0624311852331605,1.927295399779642
1.0663371822376944,1.9768889918793229
1.070243179242228,1.9939186864483873
1.0741491762467616,1.9787076478574719
1.0780551732512953,1.93202542808193
1.081961170255829,1.8550351337511315
1.0858671672603626,1.74923528238586
1.0897731642648962,1.616398356838759
1.09367916126943,1.4585080634153162
1.0975851582739637,1.2776972292317523
1.1014911552784974,1.076188143068339
1.105397152283031,0.8562369584996268
1.1093031492875647,0.6200835473438566
1.1132091462920983,0.36990792553538526
1.117115143296632,0.1077940830887413
1.1210211403011658,-0.16429825420967215
1.1249271373056995,-0.44455371073629935
1.1288331343102331,-0.7313132738907037
1.1327391313147668,-1.0230785968962839
1.1366451283193004,-1.318509213782374
1.140551125323834,-1.616413516376176
1.1444571223283677,-1.9157345332147404
1.1483631193329016,-2.215531698289979
1.1522691163374352,-2.5149599001434515
1.1561751133419689,-2.813247157009686
1.1600811103465025,-3.1096722707868887
1.1639871073510362,-3.403543772193669
1.1678931043555698,-3.6941813833379595
1.1717991013601037,-3.980901094967593
1.1757050983646373,-4.263004787734382
1.179611095369171,-4.5397751245385995
1.1835170923737046,-4.810476209860777
1.1874230893782383,-5.074360258133881
1.191329086382772,-5.3306802435237595
1.1952350833873056,-5.578708225372237
1.1991410803918394,-5.817758764915875
1.203047077396373,-6.047216578093981
1.2069530744009067,-6.266567315050133
1.2108590714054404,-6.475430128263685
1.214765068409974,-6.67359049701141
1.2186710654145076,-6.861031624583848
1.2225770624190413,-7.037962624271625
1.2264830594235752,-7.204841667635204
1.2303890564281088,-7.362392289888324
1.2342950534326425,-7.511611136827345
1.238201050437176,-7.653765598300458
1.2421070474417097,-7.790380005317577
1.2460130444462434,-7.92320936988986
1.2499190414507773,-8.054200014542731
1.253825038455311,-8.185436865644109
1.2577310354598445,-8.319077662036552
1.2616370324643782,-8.45727484608913
1.2655430294689118,-8.602086443819854
1.2694490264734455,-8.755377787584651
1.2733550234779791,-8.918716470533523
1.277261020482513,-9.0932634267717
1.2811670174870466,-9.279663484215812
1.2850730144915803,-9.477939117365462
1.288979011496114,-9.687391413656211
1.2928850085006476,-9.906512439732063
1.2967910055051812,-10.132913234764935
1.3006970025097149,-10.363271551549591
1.3046029995142487,-10.59330320095264
1.3085089965187824,-10.817760424494631
1.312414993523316,-11.030460122018487
1.3163209905278497,-11.22434400151718
1.3202269875323833,-11.391571808332118
1.324132984536917,-11.52364775077415
1.3280389815414506,-11.611579096218927
1.3319449785459845,-11.646064700954154
1.3358509755505181,-11.617710000634442
1.3397569725550518,-11.517263774245832
1.3436629695595854,-11.335870855466451
1.347568966564119,-11.065333955946391
1.3514749635686527,-10.698376939758514
1.3553809605731866,-10.228901298332255
1.3592869575777202,-9.652227265362416
1.3631929545822539,-8.965311016512867
1.3670989515867875,-8.166929741474542
1.3710049485913212,-7.257827063149095
1.3749109455958548,-6.240812300599669
1.3788169426003885,-5.120808401568022
1.3827229396049223,-3.9048449623762904
1.386628936609456,-2.6019945481469167
1.3905349336139896,-1.2232524522113932
1.3944409306185233,0.21863799071394885
1.398346927623057,1.7094104830125836
1.4022529246275905,3.2335453607356395
1.4061589216321242,4.7745762170807104
1.410064918636658,6.315424716613887
1.4139709156411917,7.838753749865372
1.4178769126457254,9.327328436836169
1.421782909650259,10.76437424451922
1.4256889066547926,12.1339216437073
1.4295949036593263,13.421127281716416
1.43350090066386,14.612562560664587
1.4374068976683938,15.696461741002778
1.4413128946729274,16.662923180119623
1.445218891677461,17.50405899992798
1.4491248886819947,18.21409028365645
1.4530308856865284,18.789386756745273
1.456936882691062,19.22845173710871
1.460842879695596,19.531854877656023
1.4647488767001295,19.702116807391697
1.4686548737046632,19.74355115433262
1.4725608707091968,19.662070562340872
1.4764668677137305,19.464964164979055
1.4803728647182641,19.160654535069423
1.4842788617227978,18.7584423833982
1.4881848587273316,18.268247240261044
1.4920908557318653,17.70035203625909
1.495996852736399,17.06515893009392
1.4999028497409326,16.372962944771466
1.5038088467454662,15.633749009078674
1.5077148437499999,14.85701690181214
1.5116208407545335,14.051637407377806
1.5155268377590674,13.225741758648272
1.519432834763601,12.386645210666735
1.5233388317681347,11.540804398551089
1.5272448287726683,10.693807022507672
1.531150825777202,9.850391405047684
1.5350568227817356,9.014492607505778
1.5389628197862693,8.189311095840432
1.5428688167908031,7.377399424112847
1.5467748137953368,6.580762066269139
1.5506808107998704,5.8009633749109595
1.554586807804404,5.039238675594887
1.5584928048089377,4.296603707093129
1.5623988018134713,3.573957977055796
1.5663047988180052,2.872178099227148
1.5702107958225389,2.1921977895996547
1.5741167928270725,1.5350718985157465
1.5780227898316062,0.9020226156524781
1.5819287868361398,0.2944667759781414
1.5858347838406734,-0.28597601193154587
1.589740780845207,-0.8374939265282696
1.593646777849741,-1.358110979128074
1.5975527748542746,-1.845730701844196
1.6014587718588082,-2.2981930907588484
1.605364768863342,-2.713341985030779
1.6092707658678755,-3.0890997524810455
1.6131767628724092,-3.423545970349492
1.6170827598769428,-3.714996737424839
1.6209887568814767,-3.9620813269601745
1.6248947538860103,-4.163813080679291
1.628800750890544,-4.319651740864762
1.6327067478950776,-4.4295548048222315
1.6366127448996113,-4.494015946165291
1.640518741904145,-4.514089060713844
1.6444247389086786,-4.491397040617967
1.6483307359132124,-4.428124937669158
1.652236732917746,-4.326997725321219
1.6561427299222797,-4.191243389708917
1.6600487269268134,-4.024542555805191
1.663954723931347,-3.8309662710592414
1.6678607209358807,-3.6149039134761978
1.6717667179404145,-3.380983455331641
1.6756727149449482,-3.1339864920862768
1.6795787119494818,-2.8787605364638464
1.6834847089540155,-2.6201310811806575
1.6873907059585491,-2.362815854528864
1.6912967029630828,-2.1113435376686205
1.6952026999676164,-1.869978990218098
1.6991086969721503,-1.642656752634708
1.703014693976684,-1.4329242723971758
1.7069206909812176,-1.2438959493005888
1.7108266879857512,-1.0782187266104069
1.7147326849902849,-0.9380495823820546
1.7186386819948185,-0.8250449111455372
1.7225446789993522,-0.7403614414922118
1.726450676003886,-0.6846680196805978
1.7303566730084197,-0.65816731145458
1.7342626700129533,-0.6606262403527263
1.738168667017487,-0.6914137955829213
1.7420746640220206,-0.7495447090108875
1.7459806610265542,-0.8337274203021143
1.749886658031088,-0.9424147215047479
1.7537926550356218,-1.0738554955443882
1.7576986520401554,-1.2261460339547567
1.761604649044689,-1.3972795331641448
1.7655106460492227,-1.5851925202187849
1.7694166430537563,-1.7878071415500794
1.77332264005829,-2.003068455292822
1.7772286370628239,-2.2289760913949848
1.7811346340673575,-2.46360987688862
1.7850406310718911,-2.705149258934377
1.7889466280764248,-2.95188658867434
1.7928526250809584,-3.20223454803125
1.796758622085492,-3.4547282033538607
1.8006646190900257,-3.7080223487495427
1.8045706160945596,-3.9608849532272927
1.8084766130990932,-4.212187645249295
1.812382610103627,-4.460894252498801
1.8162886071081605,-4.706048460868892
1.8201946041126942,-4.946761662919125
1.8241006011172278,-5.182202031300628
1.8280065981217615,-5.4115857768364375
1.8319125951262953,-5.634171434990488
1.835818592130829,-5.849257870404118
1.8397245891353626,-6.056186500313496
1.8436305861398963,-6.254348018652398
1.84753658314443,-6.443193659555161
1.8514425801489636,-6.6222507791461975
1.8553485771534974,-6.791142266392011
1.859254574158031,-6.94960902681181
1.8631605711625647,-7.097534527173461
1.8670665681670984,-7.234970155642303
1.870972565171632,-7.362159951082339
1.8748785621761657,-7.479563097953431
1.8787845591806993,-7.587872479401833
1.8826905561852332,-7.68802753947063
1.8865965531897668,-7.7812197331423
1.8905025501943005,-7.868888945608663
1.8944085471988341,-7.952709442948878
1.8983145442033678,-8.034564175887954
1.9022205412079014,-8.116506594272172
1.906126538212435,-8.200709537117266
1.910032535216969,-8.289401233228677
1.9139385322215026,-8.38478896891928
1.9178445292260362,-8.488971537510057
1.9217505262305699,-8.603842162290293
1.9256565232351035,-8.73098415995771
1.9295625202396371,-8.87156216272556
1.9334685172441708,-9.026212220456916
1.9373745142487047,-9.194934535082378
1.9412805112532383,-9.37699291428966
1.945186508257772,-9.570825247463786
1.9490925052623056,-9.77396938378037
1.9529985022668392,-9.983008713123391
1.9569044992713729,-10.19354150224513
1.9608104962759068,-10.400177613605925
1.9647164932804404,-10.596565630975745
1.968622490284974,-10.77545263936267
1.9725284872895077,-10.928777969920466
1.9764344842940413,-11.047801144003587
1.980340481298575,-11.1232630635651
1.9842464783031086,-11.145578234727118
1.9881524753076425,-11.105054521991633
1.9920584723121761,-10.992135662736835
1.9959644693167098,-10.797660580388259
1.9998704663212434,-10.513132477310377
2.003776463325777,-10.130989821993165
2.0076824603303107,-9.644870722952472
2.0115884573348444,-9.049861850445456
2.015494454339378,-8.342723062811363
2.0194004513439117,-7.522079239740865
2.0233064483484453,-6.588571526881977
2.0272124453529794,-5.544961244136161
2.031118442357513,-4.396181074845161
2.0350244393620467,-3.149329788446651
2.0389304363665803,-1.8136085932598278
2.042836433371114,-0.4001991945320462
2.0467424303756476,1.0779143373016047
2.0506484273801813,2.6061757893126014
2.054554424384715,4.1687331496715325
2.0584604213892486,5.748753434963539
2.062366418393782,7.32876697298539
2.066272415398316,8.891031056652643
2.0701784124028495,10.417902206453139
2.074084409407383,11.892206003909452
2.077990406411917,13.297593593557723
2.081896403416451,14.618874484600116
2.0858024004209845,15.842316187196099
2.089708397425518,16.955902448828557
2.093614394430052,17.9495433574057
2.0975203914345855,18.81523228450121
2.101426388439119,19.547146483165353
2.1053323854436528,20.14169005620501
2.1092383824481864,20.59747989944405
2.11314437945272,20.915277030453577
2.1170503764572537,21.09786737294445
2.1209563734617873,21.14989752521865
2.124862370466321,21.07767225277925
2.1287683674708546,20.888921376896963
2.1326743644753887,20.59254436135983
2.1365803614799224,20.198341219959776
2.140486358484456,19.716738380729726
2.1443923554889897,19.158517863990635
2.1482983524935233,18.534557584371374
2.152204349498057,17.855589805099903
2.1561103465025906,17.13198379566114
2.1600163435071242,16.373557615658086
2.163922340511658,15.589422715406485
2.1678283375161915,14.787863755398712
2.171734334520725,13.97625474951115
2.175640331525259,13.161011375544225
2.1795463285297925,12.347578112358928
2.183452325534326,11.540447791434786
2.18735832253886,10.743210222127548
2.191264319543394,9.95862578773746
2.1951703165479275,9.18871933029454
2.199076313552461,8.434889255240687
2.202982310556995,7.698026595471021
2.2068883075615284,6.978638773359086
2.210794304566062,6.276972979163856
2.2147003015705957,5.593134428851089
2.2186062985751294,4.9271952534009005
2.222512295579663,4.279290380837635
2.2264182925841967,3.6496974743704436
2.2303242895887303,3.038898756186915
2.234230286593264,2.4476233468254804
2.238136283597798,1.8768695552065586
2.2420422806023317,1.3279073361938822
2.2459482776068653,0.8022618650253596
2.249854274611399,0.30167983804865317
2.2537602716159326,-0.17191932250967193
2.2576662686204663,-0.61650472071882
2.261572265625,-1.0300047133620478
2.2654782626295336,-1.4103839078387872
2.269384259634067,-1.7557231338327652
2.273290256638601,-2.064299118222525
2.2771962536431345,-2.334660734885745
2.281102250647668,-2.565698947286012
2.285008247652202,-2.7567078979952275
2.2889142446567354,-2.90743500907654
2.2928202416612695,-3.018118422199327
2.296726238665803,-3.089510608144853
2.300632235670337,-3.1228874925158236
2.3045382326748705,-3.120042959105152
2.308444229679404,-3.083269086801264
2.3123502266839377,-3.0153229341161434
2.3162562236884714,-2.919381093655579
2.320162220693005,-2.79898358597759
2.3240682176975387,-2.6579689400500164
2.3279742147020723,-2.500402510635453
2.331880211706606,-2.330500209055839
2.3357862087111396,-2.1525498734314827
2.3396922057156733,-1.9708324808568864
2.3435982027202074,-1.7895453126437617
2.347504199724741,-1.61272903219723
2.3514101967292746,-1.444200432153795
2.3553161937338083,-1.2874923628970993
2.359222190738342,-1.1458020787927594
2.3631281877428756,-1.021948941898752
2.3670341847474092,-0.9183421158199715
2.370940181751943,-0.8369585746969681
2.3748461787564765,-0.7793314532686156
2.37875217576101,-0.7465484817652213
2.382658172765544,-0.739259991162792
2.3865641697700775,-0.7576957459373415
2.390470166774611,-0.8016896675061798
2.3943761637791448,-0.8707113553017864
2.398282160783679,-0.96390319582199
2.4021881577882125,-1.0801217736805362
2.406094154792746,-1.2179822620686902
2.4100001517972798,-1.3759044714558228
2.4139061488018134,-1.5521592722449726
2.417812145806347,-1.7449141762195808
2.4217181428108807,-1.9522769591537958
2.4256241398154144,-2.172336328588233
2.429530136819948,-2.403198781833671
2.4334361338244817,-2.643020955027082
2.4373421308290153,-2.8900369299968918
2.441248127833549,-3.14258013761307
2.4451541248380826,-3.3990996703731557
2.4490601218426167,-3.658170989662541
2.4529661188471503,-3.9185011810752965
2.456872115851684,-4.178929071163017
2.4607781128562176,-4.438420667831255
2.4646841098607513,-4.696060521145793
2.468590106865285,-4.951039718291587
2.4724961038698186,-5.202641322599294
2.476402100874352,-5.450224138866726
2.480308097878886,-5.693205733005991
2.4842140948834195,-5.931045651274044
2.488120091887953,-6.163229771629758
2.492026088892487,-6.389256676487591
2.4959320858970204,-6.608626862444947
2.4998380829015545,-6.8208354993317935
2.503744079906088,-7.025369319787761
2.507650076910622,-7.221708063887723
2.5115560739151555,-7.409330724237062
2.515462070919689,-7.587726639251938
2.5193680679242227,-7.756411270463169
2.5232740649287564,-7.91494627871656
2.52718006193329,-8.062963289854968
2.5310860589378237,-8.200190519290949
2.5349920559423573,-8.326481213849318
2.538898052946891,-8.441842675955776
2.5428040499514246,-8.546464467727223
2.5467100469559583,-8.64074425918883
2.550616043960492,-8.725309694202325
2.554522040965026,-8.801034607933845
2.5584280379695596,-8.869047948233531
2.5623340349740933,-8.930733836318126
2.566240031978627,-8.98772135415914
2.5701460289831606,-9.041862869461605
2.5740520259876942,-9.095200004173423
2.577958022992228,-9.14991671653238
2.5818640199967615,-9.208279394299758
2.585770017001295,-9.272564339588474
2.589676014005829,-9.344973552015862
2.5935820110103625,-9.427540272158693
2.597488008014896,-9.522026313881451
2.6013940050194297,-9.629813771808386
2.605300002023964,-9.751794216530222
2.6092059990284975,-9.888258960938536
2.613111996033031,-10.038794371372319
2.6170179930375648,-10.202186482183459
2.6209239900420984,-10.376339328279492
2.624829987046632,-10.558211416042392
2.6287359840511657,-10.743774591311176
2.6326419810556994,-10.927999221371879
2.636547978060233,-11.104869079852103
2.6404539750647666,-11.267428610147164
2.6443599720693003,-11.407864353788568
2.648265969073834,-11.51762128298587
2.6521719660783676,-11.587553598298305
2.6560779630829012,-11.60810827858367
2.6599839600874353,-11.56953834463051
2.663889957091969,-11.462141470760514
2.6677959540965026,-11.276518306176888
2.6717019511010363,-11.003843709276252
2.67560794810557,-10.636143113549686
2.6795139451101035,-10.16656549060959
2.683419942114637,-9.58964390595397
2.687325939119171,-8.901534518603171
2.6912319361237045,-8.100225086282405
2.695137933128238,-7.185704617434874
2.6990439301327718,-6.160086756600105
2.7029499271373054,-5.027680778576609
2.706855924141839,-3.795005658757172
2.710761921146373,-2.4707445242955917
2.714667918150907,-1.0656388008826723
2.7185739151554404,0.4076765306222907
2.722479912159974,1.9348930547222112
2.7263859091645077,3.5002988996767126
2.7302919061690414,5.087091228815803
2.734197903173575,6.677722334928459
2.7381039001781087,8.254269191474645
2.7420098971826423,9.798815458535096
2.745915894187176,11.29383450026083
2.7498218911917096,12.722561959050035
2.7537278881962433,14.069346845378705
2.757633885200777,15.319970918227654
2.7615398822053105,16.461927309602842
2.7654458792098446,17.484650833548603
2.7693518762143783,18.379694149716848
2.773257873218912,19.140845850337175
2.7771638702234456,19.764188529192044
2.781069867227979,20.24809689294139
2.784975864232513,20.59317791252698
2.7888818612370465,20.802156814924853
2.79278785824158,20.879714321228846
2.796693855246114,20.83228189457811
2.8005998522506474,20.667802831543526
2.804505849255181,20.395467787036402
2.8084118462597147,20.025433752677134
2.8123178432642484,19.568535611968418
2.8162238402687825,19.035999184907787
2.820129837273316,18.439164173209917
2.8240358342778498,17.78922465783358
2.8279418312823834,17.096993823196392
2.831847828286917,16.372698432855245
2.8357538252914507,15.62580730845115
2.8396598222959843,14.864896717748628
2.843565819300518,14.0975542086097
2.8474718163050516,13.330321081515113
2.8513778133095853,12.568672417860524
2.855283810314119,11.817032413898772
2.8591898073186526,11.078821744255935
2.863095804323186,10.356532821284663
2.86700180132772,9.65182814693302
2.870907798332254,8.965656484742993
2.8748137953367876,8.29838131613309
2.8787197923413212,7.649915985228948
2.882625789345855,7.019860071453408
2.8865317863503885,6.407631844020829
2.890437783354922,5.812592127138993
2.894343780359456,5.234155514303889
2.8982497773639895,4.671885586267233
2.902155774368523,4.125571579383586
2.9060617713730568,3.5952847872271754
2.9099677683775904,3.0814138267525504
2.913873765382124,2.584678730256148
2.9177797623866577,2.1061246077295395
2.921685759391192,1.6470963358363722
2.9255917563957254,1.2091963485216308
2.929497753400259,0.7942281134440646
2.9334037504047927,0.4041282661354322
2.9373097474093264,0.04089063316184411
2.94121574441386,-0.29351449535568297
2.9451217414183937,-0.5972224819353685
2.9490277384229273,-0.8685546034643018
2.952933735427461,-1.1060934432032852
2.9568397324319946,-1.3087507204302757
2.9607457294365283,-1.4758252653119288
2.964651726441062,-1.6070493054049784
2.9685577234455955,-1.702621727447168
2.972463720450129,-1.7632274934020749
2.9763697174546633,-1.7900429032711218
2.980275714459197,-1.7847268905271483
2.9841817114637306,-1.7493989927059093
2.988087708468264,-1.686605045825604
2.991993705472798,-1.5992719959585888
2.9958997024773315,-1.4906534966456908
2.999805699481865,-1.364268162241833
3.003711696486399,-1.2238324731125194
3.0076176934909324,-1.0731903802309863
3.011523690495466,-0.9162416382214446
3.0154296874999997,-0.7568708136118187
3.0193356845045334,-0.5988787771757285
3.023241681509067,-0.44591830525278686
3.027147678513601,-0.3014351951444792
3.0310536755181348,-0.1686160547154115
3.0349596725226684,-0.050343666646618886
3.038865669527202,0.050839436779394946
3.0427716665317357,0.1327588130922741
3.0466776635362693,0.19362723697423007
3.050583660540803,0.23205522021562308
3.0544896575453366,0.2470532367067852
3.0583956545498703,0.23802614548845924
3.062301651554404,0.2047604557776756
3.0662076485589376,0.14740519777654051
3.070113645563471,0.06644725179414165
3.074019642568005,-0.03731795347613877
3.0779256395725385,-0.16281943331110763
3.0818316365770726,-0.30874638723236264
3.0857376335816062,-0.473585766220354
3.08964363058614,-0.6556607886936104
3.0935496275906735,-0.8531695874055986
3.097455624595207,-1.064223243419524
3.101361621599741,-1.286882546999205
3.1052676186042745,-1.5191929145554939
3.109173615608808,-1.7592169818270837
3.1130796126133418,-2.005064482778457
3.1169856096178754,-2.2549191084073716
3.120891606622409,-2.5070621176139167
3.1247976036269427,-2.75989254209041
3.1287036006314763,-3.0119438882367837
3.1326095976360104,-3.2618972915132916
3.136515594640544,-3.5085911231164295
3.1404215916450777,-3.751027086564547
3.1443275886496114,-3.988372874235499
3.148233585654145,-4.219961482901858
3.1521395826586787,-4.445287314785145
3.1560455796632123,-4.663999218511274
3.159951576667746,-4.875890654327244
3.1638575736722796,-5.080887201450788
3.1677635706768132,-5.279031663478845
3.171669567681347,-5.470467070857875
3.1755755646858805,-5.655417927327033
3.179481561690414,-5.834170099050872
3.183387558694948,-6.007049799221405
3.187293555699482,-6.17440217493134
3.1911995527040156,-6.336570054159516
3.195105549708549,-6.493873455240643
3.199011546713083,-6.646590495290937
3.2029175437176165,-6.794940353679156
3.20682354072215,-6.939068947869248
3.210729537726684,-7.079037958297354
3.2146355347312174,-7.214817793408208
3.218541531735751,-7.346285013270427
3.2224475287402847,-7.4732246288969995
3.2263535257448184,-7.595337564227802
3.230259522749352,-7.712253409765574
3.2341655197538857,-7.823548413692942
3.2380715167584198,-7.928768452097071
3.2419775137629534,-8.027456500374038
3.245883510767487,-8.119183900060802
3.2497895077720207,-8.203584487500727
3.2536955047765543,-8.2803904319691
3.257601501781088,-8.349468430716042
3.2615074987856216,-8.410854736551569
3.2654134957901553,-8.464787359745149
3.269319492794689,-8.511733699392796
3.2732254897992226,-8.552411828529909
3.277131486803756,-8.587803689564032
3.28103748380829,-8.61915855805553
3.2849434808128235,-8.647985307656057
3.288849477817357,-8.676032259103524
3.2927554748218912,-8.705253721001425
3.296661471826425,-8.737762726224599
3.3005674688309585,-8.775769928558443
3.304473465835492,-8.821509139617271
3.308379462840026,-8.877150542872524
3.3122854598445595,-8.944703203218193
3.316191456849093,-9.025909077455628
3.3200974538536268,-9.122131301461433
3.3240034508581604,-9.23424005980517
3.327909447862694,-9.36249980829184
3.3318154448672277,-9.506461994181599
3.3357214418717613,-9.6648676783379
3.339627438876295,-9.835564585837497
3.343533435880829,-10.015443077284733
3.3474394328853627,-10.20039532704526
3.3513454298898964,-10.38530160692685
3.35525142689443,-10.564047000829218
3.3591574238989637,-10.729571121122547
3.3630634209034973,-10.873952472500804
3.366969417908031,-10.988528033636504
3.3708754149125646,-11.064047429403697
3.3747814119170982,-11.090859783214249
3.378687408921632,-11.059130014232263
3.3825934059261655,-10.95908002852662
3.386499402930699,-10.781249002154
3.390405399935233,-10.516765826135147
3.3943113969397665,-10.157625836920909
3.3982173939443006,-9.696963247007305
3.402123390948834,-9.129310268390814
3.406029387953368,-8.45083382645711
3.4099353849579015,-7.659541020696392
3.413841381962435,-6.755445112742711
3.417747378966969,-5.740684805500091
3.4216533759715024,-4.619590895004402
3.425559372976036,-3.398695986611629
3.4294653699805697,-2.0866848101036695
3.4333713669851034,-0.694284671634878
3.437277363989637,0.7659023387313665
3.4411833609941707,2.279621695451061
3.4450893579987043,3.8312376845572538
3.4489953550032384,5.404046109872145
3.452901352007772,6.980619501231054
3.4568073490123057,8.543174679873081
3.4607133460168393,10.07395172840658
3.464619343021373,11.55559301714105
3.4685253400259066,12.971510968215465
3.4724313370304403,14.306233687782797
3.476337334034974,15.545718440198307
3.4802433310395076,16.67762413591842
3.484149328044041,17.691535501887408
3.488055325048575,18.57913333381638
3.4919613220531085,19.33430712053486
3.495867319057642,19.95320830402105
3.499773316062176,20.43424441681477
3.50367931306671,20.778016246237883
3.5075853100712435,20.98720194310138
3.511491307075777,21.066393560846482
3.515397304080311,21.02189282951864
3.5193033010848445,20.861473999945773
3.523209298089378,20.594122312277076
3.5271152950939118,20.229757038054505
3.5310212920984454,19.778948117437004
3.534927289102979,19.252635176240542
3.5388332861075127,18.661857184933385
3.5427392831120463,18.017500246476324
3.54664528011658,17.330070011868123
3.5505512771211136,16.60949406654826
3.5544572741256477,15.864958355733842
3.5583632711301814,15.104780371944742
3.562269268134715,14.336320462566908
3.5661752651392487,13.565931276506664
3.5700812621437823,12.79894410067501
3.573987259148316,12.039689678527148
3.5778932561528496,11.291550087801745
3.5817992531573832,10.557037410061291
3.585705250161917,9.837894270698463
3.5896112471664505,9.135210877521507
3.593517244170984,8.449552944271803
3.597423241175518,7.781094850622028
3.6013292381800515,7.129752553624212
3.6052352351845856,6.495311112169061
3.609141232189119,5.877542195170575
3.613047229193653,5.27630759064668
3.6169532261981865,4.691645487685105
3.62085922320272,4.123837134866285
3.624765220207254,3.5734523539872556
3.6286712172117874,3.0413732735997976
3.632577214216321,2.5287965106077595
3.6364832112208547,2.0372148396716074
3.6403892082253884,1.568380122278592
3.644295205229922,1.12424989703438
3.6482012022344557,0.706920541922904
3.6521071992389893,0.3185502952780243
3.656013196243523,-0.03872434204161254
3.659919193248057,-0.3628752067002008
3.6638251902525907,-0.6520685021731264
3.6677311872571243,-0.9047468566288775
3.671637184261658,-1.1197042965763448
3.6755431812661916,-1.2961514099196436
3.6794491782707253,-1.4337684376413522
3.683355175275259,-1.5327445566765567
3.6872611722797926,-1.5938021753912497
3.691167169284326,-1.6182056351926186
3.69507316628886,-1.6077542758396663
3.6989791632933935,-1.564760358327252
3.702885160297927,-1.4920128303332862
3.706791157302461,-1.39272835030517
3.710697154306995,-1.2704913454740594
3.7146031513115285,-1.1291851579539567
3.718509148316062,-0.972916526726889
3.722415145320596,-0.8059357604092843
3.7263211423251295,-0.632554978218295
3.730227139329663,-0.45706673943934467
3.7341331363341967,-0.28366525239782353
3.7380391333387304,-0.11637216193456242
3.741945130343264,0.04103132942865728
3.7458511273477977,0.18506453529324712
3.7497571243523313,0.31259839446547044
3.753663121356865,0.42089678280683135
3.7575691183613986,0.5076475261748661
3.7614751153659323,0.5709829361042955
3.7653811123704664,0.6094899955969314
3.769287109375,0.6222106016902196
3.7731931063795336,0.6086325170701563
3.7770991033840673,0.5686718892884772
3.781005100388601,0.5026483593378823
3.7849110973931346,0.4112538994484938
3.7888170943976682,0.2955165927642827
3.792723091402202,0.15676059645276808
3.7966290884067355,-0.0034364823050504335
3.800535085411269,-0.1832876169363054
3.804441082415803,-0.3808406988162924
3.8083470794203365,-0.5940221878741495
3.81225307642487,-0.8206792089974901
3.816159073429404,-1.0586193658496235
3.820065070433938,-1.305647689528331
3.8239710674384715,-1.559600286013454
3.827877064443005,-1.818374388044025
3.8317830614475388,-2.0799546490552405
3.8356890584520724,-2.34243563498676
3.839595055456606,-2.604040570930684
3.8435010524611397,-2.863136481512362
3.8474070494656734,-3.1182459254831447
3.851313046470207,-3.368055566249936
3.8552190434747406,-3.6114218419932453
3.8591250404792743,-3.847374003533225
3.863031037483808,-4.075114777776022
3.8669370344883416,-4.294018892482077
3.8708430314928757,-4.50362966765632
3.8747490284974093,-4.703653843672051
3.878655025501943,-4.893954779881619
3.8825610225064766,-5.074544123275249
3.8864670195110103,-5.245572017715895
3.890373016515544,-5.407315902985169
3.8942790135200775,-5.560167941413163
3.898185010524611,-5.704621109750627
3.902091007529145,-5.841254006055981
3.9059970045336785,-5.970714445891616
3.909903001538212,-6.093701958516891
3.9138089985427458,-6.210949340817126
3.9177149955472794,-6.323203482566677
3.9216209925518135,-6.431205738824
3.925526989556347,-6.535672190805246
3.929432986560881,-6.63727420210275
3.9333389835654144,-6.736619738922278
3.937244980569948,-6.834235977099663
3.9411509775744817,-6.930553760713877
3.9450569745790154,-7.0258945027154605
3.948962971583549,-7.120460122873223
3.9528689685880827,-7.214326598660932
3.9567749655926163,-7.307441657272792
3.96068096259715,-7.399627059522125
3.9645869596016836,-7.490585817883291
3.9684929566062173,-7.5799145517160005
3.972398953610751,-7.667121014678363
3.976304950615285,-7.751646636136143
3.9802109476198186,-7.832893705376995
3.9841169446243523,-7.91025660154353
3.988022941628886,-7.983156241627024
3.9919289386334196,-8.0510766929604
3.9958349356379532,-8.113602685631342
3.999740932642487,-8.170456574764401
4.0036469296470205,-8.221533153287268
4.007552926651554,-8.266930612698758
4.011458923656088,-8.306975901750818
4.0153649206606215,-8.342242748862558
4.019270917665155,-8.373560699805866
4.023176914669689,-8.402013681866318
4.027082911674222,-8.428926840858546
4.030988908678756,-8.455840706795048
4.03489490568329,-8.484472123384961
4.038800902687823,-8.51666181844637
4.042706899692357,-8.55430898613354
4.046612896696891,-8.599293783890532
4.050518893701424,-8.653389200686792
4.054424890705959,-8.718164309383354
4.058330887710492,-8.794881454154963
4.062236884715026,-8.884390421639853
4.06614288171956,-8.987023079224457
4.070048878724093,-9.102492313125717
4.073954875728627,-9.229799341327062
4.077860872733161,-9.36715359254521
4.081766869737694,-9.511909315663694
4.085672866742228,-9.660522901549438
4.089578863746762,-9.808534552513152
4.093484860751295,-9.950577420953403
4.097390857755829,-10.080416661233329
4.1012968547603625,-10.191020007770069
4.105202851764896,-10.274660525206588
4.10910884876943,-10.323051098396268
4.1130148457739635,-10.327509073064524
4.116920842778497,-10.27914826150531
4.120826839783031,-10.169094336481665
4.124732836787564,-9.988718500049956
4.128638833792098,-9.72988328430017
4.132544830796632,-9.385193470187819
4.136450827801165,-8.948244448365129
4.140356824805699,-8.413859936292775
4.144262821810233,-7.778310844499333
4.148168818814766,-7.0395072760200605
4.1520748158193,-6.1971561577341445
4.155980812823834,-5.252877836449952
4.159886809828368,-4.2102761062696565
4.163792806832902,-3.074957531522409
4.167698803837435,-1.8544975416033003
4.171604800841969,-0.558352538473256
4.175510797846503,0.8022808967828539
4.179416794851036,2.214656761921793
4.18332279185557,3.6647156437715096
4.187228788860104,5.13735964290144
4.191134785864637,6.616758469268222
4.195040782869171,8.086677839326635
4.198946779873705,9.53082050552125
4.202852776878238,10.933169807956034
4.206758773882772,12.278325571166144
4.2106647708873055,13.551822475445636
4.214570767891839,14.740421695153614
4.218476764896373,15.832367584064272
4.2223827619009064,16.817602455466687
4.22628875890544,17.68793399714963
4.230194755909974,18.43715151572333
4.234100752914507,19.061088953468683
4.238006749919041,19.557634395204843
4.241912746923575,19.926687515299683
4.245818743928108,20.17006804309175
4.249724740932642,20.29137979259916
4.253630737937176,20.295836062025952
4.257536734941709,20.190053222752578
4.261442731946243,19.98182005960107
4.265348728950777,19.679850878933834
4.269254725955311,19.293530564635127
4.273160722959845,18.83265964112148
4.277066719964378,18.30720701407245
4.280972716968912,17.72707742917345
4.284878713973446,17.101899849754805
4.288784710977979,16.440841944468133
4.292690707982513,15.752454738801708
4.296596704987047,15.044550264385903
4.30050270199158,14.324113783382382
4.304408698996114,13.597250916504203
4.3083146960006475,12.869168804705975
4.312220693005181,12.144189324995576
4.316126690009715,11.425791394057356
4.3200326870142485,10.716678557661588
4.323938684018782,10.01886740105952
4.327844681023316,9.333791840856408
4.331750678027849,8.662418080343489
4.335656675032383,8.005364929069968
4.339562672036917,7.3630242978536184
4.34346866904145,6.735676970360131
4.347374666045984,6.123599203960831
4.351280663050518,5.5271563030284145
4.355186660055051,4.9468800104033335
4.359092657059585,4.3835273477504435
4.362998654064119,3.83811937134643
4.366904651068652,3.3119591641608244
4.370810648073187,2.8066292259671775
4.37471664507772,2.323969220271224
4.378622642082254,1.866035762446912
4.382528639086788,1.435046563769283
4.386434636091321,1.0333117617157541
4.390340633095855,0.6631556538031
4.394246630100389,0.3268323016877299
4.398152627104922,0.026438581275537176
4.402058624109456,-0.23617177435908931
4.40596462111399,-0.4594697517521766
4.409870618118523,-0.6423251434328483
4.413776615123057,-0.7840704129922849
4.4176826121275905,-0.8845520693648788
4.421588609132124,-0.94416780291452
4.425494606136658,-0.9638881959539362
4.429400603141191,-0.9452623956615084
4.433306600145725,-0.8904077061657674
4.437212597150259,-0.8019835986050278
4.441118594154792,-0.6831511353173791
4.445024591159326,-0.537519241986444
4.44893058816386,-0.369079627900038
4.452836585168393,-0.18213244131193532
4.456742582172927,0.018795050399595267
4.460648579177461,0.22903434872356532
4.464554576181994,0.44386373914995725
4.468460573186528,0.6585960371339585
4.4723665701910615,0.8686637847680453
4.476272567195596,1.069699796652109
4.48017856420013,1.2576111840936883
4.484084561204663,1.4286452582651115
4.487990558209197,1.5794460138091873
4.491896555213731,1.7071002132595434
4.495802552218264,1.8091724186564602
4.499708549222798,1.883728639810254
4.503614546227332,1.9293485797445897
4.507520543231865,1.9451267491204345
4.511426540236399,1.930662986378634
4.5153325372409325,1.886043153736026
4.519238534245466,1.8118109771502813
4.52314453125,1.7089321583917143
4.5270505282545335,1.578752008131468
4.530956525259067,1.422947930294419
4.534862522263601,1.2434781306682046
4.538768519268134,1.0425279286626166
4.542674516272668,0.8224550227112721
4.546580513277202,0.5857350002546443
4.550486510281735,0.3349082961546184
4.554392507286269,0.072529692692167
4.558298504290803,-0.19887867587972963
4.562204501295336,-0.4768699966820009
4.56611049829987,-0.759110468367635
4.570016495304404,-1.0434115104101025
4.573922492308937,-1.327756160238087
4.577828489313471,-1.610319492447803
4.581734486318005,-1.8894830551255481
4.585640483322539,-2.1638434706765928
4.589546480327073,-2.4322154889819436
4.593452477331606,-2.693629905988839
4.59735847433614,-2.9473268681076426
4.601264471340674,-3.1927451695750673
4.605170468345207,-3.4295082143483353
4.609076465349741,-3.6574073548651373
4.612982462354275,-3.876383336568105
4.616888459358808,-4.086506569612603
4.620794456363342,-4.287956918641429
4.6247004533678755,-4.48100364976565
4.628606450372409,-4.665986103565145
4.632512447376943,-4.843295577295133
4.636418444381476,-5.013358802350868
4.64032444138601,-5.17662329855876
4.644230438390544,-5.333544779382455
4.648136435395077,-5.4845766760428365
4.652042432399611,-5.630161748101046
4.655948429404145,-5.770725657209514
4.659854426408678,-5.906672303067835
4.663760423413212,-6.038380659174863
4.667666420417746,-6.166202803105906
4.671572417422279,-6.290462813303687
4.675478414426813,-6.411456202408258
4.6793844114313465,-6.529449575710776
4.68329040843588,-6.644680241224605
4.687196405440415,-6.75735555305091
4.691102402444948,-6.867651839281384
4.695008399449482,-6.975712846001424
4.698914396454016,-7.081647715745316
4.702820393458549,-7.18552860722239
4.706726390463083,-7.287388148298514
4.710632387467617,-7.387216991236508
4.71453838447215,-7.484961803587034
4.718444381476684,-7.5805240758630275
4.7223503784812175,-7.6737601547492496
4.726256375485751,-7.764482915240015
4.730162372490285,-7.852465464635896
4.7340683694948185,-7.937447224448281
4.737974366499352,-8.019142662519794
4.741880363503886,-8.097252847575694
4.745786360508419,-8.171479873516477
4.749692357512953,-8.241544053700144
4.753598354517487,-8.307203620093619
4.75750435152202,-8.36827648362589
4.761410348526554,-8.424663426802889
4.765316345531088,-8.476371915336365
4.769222342535621,-8.523539540918783
4.773128339540155,-8.56645595181294
4.777034336544689,-8.605582001465967
4.780940333549222,-8.641564757691548
4.784846330553756,-8.675246975349852
4.7887523275582895,-8.707669652074802
4.792658324562824,-8.74006636598271
4.796564321567358,-8.773848240854225
4.800470318571891,-8.810578599981092
4.804376315576425,-8.851936653956137
4.808282312580959,-8.899669916433858
4.812188309585492,-8.955535448505175
4.816094306590026,-9.021230487008514
4.8200003035945596,-9.098313502119812
4.823906300599093,-9.18811723939454
4.827812297603627,-9.291655812974092
4.8317182946081605,-9.40952840968476
4.835624291612694,-9.541822616446
4.839530288617228,-9.688020773051159
4.843436285621761,-9.84691305619167
4.847342282626295,-10.016521196675686
4.851248279630829,-10.194036800227204
4.855154276635362,-10.375778166184809
4.859060273639896,-10.557169265116075
4.86296627064443,-10.732744138175116
4.866872267648963,-10.896179416244061
4.870778264653497,-11.040356930508496
4.874684261658031,-11.157457510461024
4.878590258662564,-11.239086060488857
4.882496255667098,-11.276426900079628
4.8864022526716315,-11.260427180699375
4.890308249676165,-11.182004996823796
4.894214246680699,-11.03227763737439
4.898120243685233,-10.802804328785568
4.902026240689767,-10.485836855626209
4.905932237694301,-10.07457066165479
4.909838234698834,-9.563388482058762
4.913744231703368,-8.948088278177991
4.917650228707902,-8.226087271147827
4.921556225712435,-7.396594220032235
4.925462222716969,-6.460742767996646
4.9293682197215025,-5.421679675902297
4.933274216726036,-4.2846030492192035
4.93718021373057,-3.056747198654778
4.9410862107351035,-1.747312500768083
4.944992207739637,-0.3673404740797067
4.948898204744171,1.070463817278695
4.952804201748704,2.5519580566586724
4.956710198753238,4.061831938102789
4.960616195757772,5.583912110250432
4.964522192762305,7.101494203864856
4.968428189766839,8.59769234872391
4.972334186771373,10.055795940073315
4.976240183775906,11.459623146154662
4.98014618078044,12.793860764868803
4.984052177784974,14.044380530888501
4.987958174789507,15.198522819877331
4.991864171794041,16.245339854860195
4.9957701687985745,17.175791940050615
4.999676165803109,17.982891869069206
5.003582162807643,18.661794410786573
5.007488159812176,19.209829597314506
5.01139415681671,19.62648035542128
5.015300153821244,19.9133067684144
5.019206150825777,20.073820869560834
5.023112147830311,20.11331729741664
5.0270181448348445,20.038666344314205
5.030924141839378,19.85807686835307
5.034830138843912,19.58083719428294
5.0387361358484455,19.217042488774414
5.042642132852979,18.77731716104052
5.046548129857513,18.272540621335555
5.050454126862046,17.713584247642952
5.05436012386658,17.111066693170127
5.058266120871114,16.4751337491812
5.062172117875647,15.815267899498641
5.066078114880181,15.140131508395172
5.069984111884715,14.457446317890296
5.073890108889248,13.773910638918117
5.077796105893782,13.09515434718821
5.081702102898316,12.425730579728867
5.085608099902849,11.769141908978986
5.089514096907383,11.127897779795122
5.0934200939119165,10.503599157049916
5.09732609091645,9.897045667573847
5.101232087920984,9.308360043503132
5.105138084925518,8.737124391569171
5.109044081930052,8.18252272497839
5.112950078934586,7.6434842955375615
5.116856075939119,7.118822541961699
5.120762072943653,6.607364908869969
5.124668069948187,6.108069368126801
5.12857406695272,5.6201241643505275
5.132480063957254,5.143028081139585
5.1363860609617875,4.6766493535764155
5.140292057966321,4.221262204886
5.144198054970855,3.777560830303405
5.1481040519753885,3.3466514605085385
5.152010048979922,2.9300238843578192
5.155916045984456,2.5295044734343506
5.159822042988989,2.1471933105060206
5.163728039993523,1.7853884661422632
5.167634036998057,1.4465007830522245
5.17154003400259,1.1329627115520389
5.175446031007124,0.8471347920805415
5.179352028011658,0.5912133065638958
5.183258025016191,0.3671424286568396
5.187164022020725,0.17653390622178697
5.1910700190252586,0.02059692368272609
5.194976016029792,-0.09991966479285906
5.198882013034326,-0.18477104839965763
5.2027880100388595,-0.23424497535218716
5.206694007043393,-0.24917447732851686
5.210600004047928,-0.23093475034685762
5.214506001052461,-0.18142465486556875
5.218411998056995,-0.1030337712937054
5.222317995061529,0.0014036341764090223
5.226223992066062,0.12866602463310245
5.230129989070596,0.2752113979414104
5.2340359860751295,0.43725128722654444
5.237941983079663,0.6108296344705314
5.241847980084197,0.7919041668578602
5.2457539770887305,0.9764279321490116
5.249659974093264,1.160428746422932
5.253565971097798,1.3400844686044338
5.257471968102331,1.5117922333116918
5.261377965106865,1.6722300373638113
5.265283962111399,1.818409375333071
5.269189959115932,1.947717944644837
5.273095956120466,2.0579517793758475
5.277001953125,2.1473365125038293
5.280907950129533,2.2145377977088616
5.284813947134067,2.2586612334686667
5.288719944138601,2.279242414785696
5.292625941143134,2.276227983526636
5.296531938147668,2.249948750844316
5.3004379351522015,2.2010861201875227
5.304343932156735,2.1306331446997038
5.308249929161269,2.0398516080934463
5.3121559261658025,1.9302265249787935
5.316061923170337,1.803419418424705
5.319967920174871,1.661221654045132
5.323873917179404,1.5055089971841955
5.327779914183938,1.3381984198341679
5.331685911188472,1.1612080243314402
5.335591908193005,0.9764207793699746
5.339497905197539,0.785652587942057
5.3434039022020725,0.5906250334053407
5.347309899206606,0.39294298509300074
5.35121589621114,0.19407709372914006
5.3551218932156734,-0.00464892691788332
5.359027890220207,-0.20206644985673633
5.362933887224741,-0.39716582722564225
5.366839884229274,-0.5890964087157974
5.370745881233808,-0.7771631219902926
5.374651878238342,-0.9608200846601915
5.378557875242875,-1.1396617339992923
5.382463872247409,-1.3134119621240563
5.386369869251943,-1.481911732879554
5.390275866256476,-1.6451056342823693
5.39418186326101,-1.803027789292893
5.3980878602655435,-1.955787510164947
5.401993857270077,-2.103555039823802
5.405899854274611,-2.2465476797167967
5.4098058512791445,-2.3850165592919623
5.413711848283678,-2.519234259399896
5.417617845288212,-2.649483461841079
5.421523842292746,-2.776046760876733
5.42542983929728,-2.8991977401317053
5.429335836301814,-3.019193389780071
5.433241833306347,-3.1362679136609
5.437147830310881,-3.2506279532443494
5.4410538273154145,-3.3624492342978427
5.444959824319948,-3.471874621797383
5.448865821324482,-3.5790135482229264
5.4527718183290155,-3.6839427591906113
5.456677815333549,-3.7867082981058466
5.460583812338083,-3.8873286283179658
5.464489809342616,-3.9857987676780353
5.46839580634715,-4.08209528732957
5.472301803351684,-4.176182005093517
5.476207800356217,-4.2680161851132565
5.480113797360751,-4.357555040617285
5.484019794365285,-4.44476232671185
5.487925791369818,-4.52961480580127
5.491831788374352,-4.612108370032922
5.495737785378886,-4.692263613209224
5.499643782383419,-4.770130658691253
5.503549779387953,-4.845793069469692
5.5074557763924865,-4.919370691130544
5.51136177339702,-4.991021307046638
5.515267770401554,-5.0609410168074085
5.5191737674060874,-5.129363282654876
5.523079764410621,-5.19655662354945
5.526985761415156,-5.2628209715273515
5.530891758419689,-5.3284827394302114
5.534797755424223,-5.393888682277669
5.538703752428757,-5.459398666113791
5.54260974943329,-5.525377487848458
5.546515746437824,-5.5921859173001724
5.5504217434423575,-5.6601711582290015
5.554327740446891,-5.729656948535745
5.558233737451425,-5.800933540927154
5.562139734455958,-5.8742478241343425
5.566045731460492,-5.949793861052864
5.569951728465026,-6.027704133616001
5.573857725469559,-6.108041794310609
5.577763722474093,-6.190794230326785
5.581669719478627,-6.2758682475750405
5.58557571648316,-6.363087177206282
5.589481713487694,-6.45219019561714
5.593387710492228,-6.542834128825331
5.597293707496761,-6.634597982087832
5.601199704501295,-6.726990394252721
5.6051057015058285,-6.819460162219227
5.609011698510362,-6.911409912865649
5.612917695514896,-7.002212917033392
5.6168236925194295,-7.09123294216571
5.620729689523963,-7.177846927084276
5.624635686528497,-7.261470135059857
5.62854168353303,-7.34158330180072
5.632447680537565,-7.417761146466958
5.636353677542099,-7.489701460740035
5.640259674546632,-7.557253838915364
5.644165671551166,-7.62044696768295
5.6480716685556995,-7.679513265540056
5.651977665560233,-7.734909557299538
5.655883662564767,-7.787332398033192
5.6597896595693005,-7.837726632142769
5.663695656573834,-7.8872857957445595
5.667601653578368,-7.937443051940659
5.671507650582901,-7.989851495197238
5.675413647587435,-8.046352877364164
5.679319644591969,-8.108934095685076
5.683225641596502,-8.179671141218261
5.687131638601036,-8.260660629789905
5.69103763560557,-8.353939518745108
5.694943632610103,-8.461394139485297
5.698849629614637,-8.584660232574166
5.702755626619171,-8.725016240125953
5.706661623623704,-8.88327266726313
5.710567620628238,-9.059660846106967
5.7144736176327715,-9.253724895722872
5.718379614637305,-9.464221042551483
5.722285611641839,-9.689028721326414
5.726191608646372,-9.925077991173943
5.730097605650906,-10.168297753398406
5.73400360265544,-10.413589028660212
5.737909599659974,-10.654827129893937
5.741815596664508,-10.884895948501914
5.745721593669042,-11.095756758357723
5.749627590673575,-11.278552947198929
5.753533587678109,-11.423750929823832
5.7574395846826425,-11.52131621358332
5.761345581687176,-11.560922214920966
5.76525157869171,-11.53218801591109
5.769157575696243,-11.424939859126168
5.773063572700777,-11.229489870446827
5.776969569705311,-10.936924338037045
5.780875566709844,-10.539392926499072
5.784781563714378,-10.030389528804719
5.788687560718912,-9.405015107390412
5.792593557723445,-8.660212890132897
5.796499554727979,-7.794966691595156
5.800405551732513,-6.8104539315564825
5.804311548737046,-5.710146108129446
5.80821754574158,-4.499851018027673
5.8121235427461135,-3.187692848583872
5.816029539750647,-1.7840283245608706
5.819935536755181,-0.3012992936633117
5.8238415337597145,1.246175615246787
5.827747530764248,2.8424654253317883
5.831653527768782,4.47034044320749
5.835559524773315,6.111626373151906
5.839465521777849,7.747588690644003
5.843371518782384,9.359335922682389
5.847277515786917,10.928229778791774
5.851183512791451,12.436289825476683
5.8550895097959845,13.86658060425648
5.858995506800518,15.203569744988993
5.862901503805052,16.433446688543302
5.8668075008095855,17.544393055844015
5.870713497814119,18.526797419977708
5.874619494818653,19.37340918020918
5.878525491823186,20.07942832055652
5.88243148882772,20.642529977431565
5.886337485832254,21.062824858275235
5.890243482836787,21.34275856818647
5.894149479841321,21.486954743875998
5.898055476845855,21.502008503539674
5.901961473850388,21.396238049172176
5.905867470854922,21.17940326951142
5.909773467859456,20.86240086613313
5.913679464863989,20.45694585483965
5.917585461868523,19.975249285166964
5.9214914588730565,19.429701690348214
5.92539745587759,18.832571156636178
5.929303452882124,18.195724021267576
5.933209449886657,17.53037511587277
5.937115446891191,16.84687321466506
5.941021443895725,16.15452597471058
5.944927440900258,15.461467220057294
5.948833437904793,14.774567972417891
5.9527394349093266,14.099391215612703
5.95664543191386,13.440189042131008
5.960551428918394,12.799939605857627
5.9644574259229275,12.180420227178207
5.968363422927461,11.582312090708395
5.972269419931995,11.005331260269582
5.976175416936528,10.448380221947952
5.980081413941062,9.909713858788384
5.983987410945596,9.387113658030742
5.987893407950129,8.878064045798121
5.991799404954663,8.379925021203073
5.995705401959197,7.890095703502254
5.99961139896373,7.406163989770125
6.003517395968264,6.926038221061964
6.007423392972798,6.448057544515471
6.011329389977331,5.971078508404684
6.015235386981865,5.494536307661472
6.0191413839863985,5.018479980321387
6.023047380990932,4.543581713683388
6.026953377995466,4.071121227793137
6.0308593749999995,3.6029469410554524
6.034765372004533,3.1414162696055468
6.038671369009067,2.689317953557069
6.0425773660136,2.2497797284546652
6.046483363018134,1.8261649623631049
6.050389360022668,1.421962055311064
6.054295357027202,1.040670449553818
6.058201354031736,0.685687031309903
6.0621073510362695,0.36019652552982484
6.066013348040803,0.06706920593537093
6.069919345045337,-0.19123112358438216
6.0738253420498705,-0.4127263578461821
6.077731339054404,-0.5959885037277333
6.081637336058938,-0.740187782164283
6.085543333063471,-0.8451234725449458
6.089449330068005,-0.9112371051838734
6.093355327072539,-0.9396081452527184
6.097261324077072,-0.9319328197633485
6.101167321081606,-0.8904872042402421
6.10507331808614,-0.8180760959996048
6.108979315090673,-0.7179695470396003
6.112885312095207,-0.5938292043066242
6.116791309099741,-0.4496268037910606
6.120697306104274,-0.2895572852916657
6.124603303108808,-0.11794903705089561
6.1285093001133415,0.060826253547201795
6.132415297117875,0.24244177056038457
6.136321294122409,0.42269955591059755
6.140227291126942,0.5976083285819614
6.144133288131476,0.7634534213011661
6.14803928513601,0.9168574219338967
6.151945282140543,1.0548304330505736
6.155851279145077,1.174809201984471
6.1597572761496115,1.2746847145703764
6.163663273154145,1.3528181786144517
6.167569270158679,1.4080456388813067
6.1714752671632125,1.4396717559126475
6.175381264167746,1.447453539423026
6.17928726117228,1.4315750477889673
6.183193258176813,1.3926142441305007
6.187099255181347,1.3315033340371736
6.191005252185881,1.2494839989421176
6.194911249190414,1.1480589827427974
6.198817246194948,1.0289414890863564
6.202723243199482,0.8940038055402815
6.206629240204015,0.745226492381881
6.210535237208549,0.584649362481432
6.214441234213083,0.41432533990535414
6.218347231217616,0.236278124149366
6.22225322822215,0.05246441046936411
6.2261592252266835,-0.13525876897886194
6.230065222231217,-0.32516120709035956
6.233971219235751,-0.5156609959684572
6.2378772162402845,-0.7053402984726189
6.241783213244818,-0.8929555642514326
6.245689210249352,-1.0774424810039143
6.249595207253885,-1.2579160739378394
6.253501204258419,-1.4336664650280293
6.257407201262953,-1.6041508775828437
6.261313198267486,-1.7689825206409118
6.265219195272021,-1.9279170125403153
6.2691251922765545,-2.080837005082934
6.273031189281088,-2.22773565114824
6.276937186285622,-2.3686995219694804
6.2808431832901555,-2.503891528484611
6.284749180294689,-2.633534337352296
6.288655177299223,-2.757894699647407
6.292561174303756,-2.8772690322064594
6.29646717130829,-2.991970511255679
6.300373168312824,-3.102317858262309
6.304279165317357,-3.208625921490246
6.308185162321891,-3.3111980856567995
6.312091159326425,-3.4103204780636407
6.315997156330958,-3.5062578838886678
6.319903153335492,-3.5992512368726506
6.3238091503400256,-3.6895165149226488
6.327715147344559,-3.7772448433206542
6.331621144349093,-3.8626035911075562
6.3355271413536265,-3.9457382384330923
6.33943313835816,-4.026774793696796
6.343339135362694,-4.105822548492627
6.347245132367227,-4.182976974886836
6.351151129371761,-4.258322592380334
6.355057126376295,-4.3319356597836824
6.358963123380828,-4.403886578710923
6.362869120385362,-4.474241928913519
6.366775117389896,-4.54306608966293
6.37068111439443,-4.610422434351798
6.374587111398964,-4.676374116027768
6.3784931084034975,-4.74098448843718
6.382399105408031,-4.80431722921485
6.386305102412565,-4.866436248153096
6.390211099417098,-4.927405473277357
6.394117096421632,-4.987288610296952
6.398023093426166,-5.046148966784484
6.401929090430699,-5.10404942139683
6.405835087435233,-5.1610526010903675
6.409741084439767,-5.217221306358497
6.4136470814443,-5.272619197058155
6.417553078448834,-5.327311720724144
6.421459075453368,-5.3813672330379845
6.425365072457901,-5.4348582282472755
6.429271069462435,-5.487862567956461
6.4331770664669685,-5.540464572061979
6.437083063471502,-5.5927558178783645
6.440989060476036,-5.6448354846988975
6.4448950574805695,-5.696810082806329
6.448801054485103,-5.748792419468464
6.452707051489637,-5.80089968032294
6.45661304849417,-5.853250542729036
6.460519045498704,-5.9059612873651295
6.464425042503238,-5.959140934037353
6.468331039507771,-6.012885495076632
6.472237036512305,-6.067271511957
6.4761430335168395,-6.12234911447932
6.480049030521373,-6.178134913232267
6.483955027525907,-6.234605100972884
6.4878610245304404,-6.291689192845316
6.491767021534974,-6.349264874865195
6.495673018539508,-6.407154451079029
6.499579015544041,-6.465123379070217
6.503485012548575,-6.52288135853839
6.507391009553109,-6.580086386848693
6.511297006557642,-6.636352117971439
6.515203003562176,-6.691258757342879
6.51910900056671,-6.744367596120622
6.523014997571243,-6.7952391363570515
6.526920994575777,-6.84345458716237
6.5308269915803105,-6.8886403255823625
6.534732988584844,-6.930494720467455
6.538638985589378,-6.968816519902993
6.5425449825939115,-7.003533810591536
6.546450979598445,-7.034732379557891
6.550356976602979,-7.062682153924885
6.554262973607512,-7.0878602726976565
6.558168970612046,-7.110969264618319
6.56207496761658,-7.132948776675672
6.565980964621113,-7.154979326290595
6.569886961625647,-7.17847664277848
6.573792958630181,-7.205075324972482
6.577698955634714,-7.23660077436307
6.581604952639249,-7.275028666835371
6.5855109496437825,-7.322431598419619
6.589416946648316,-7.380912975827685
6.59332294365285,-7.452528712237073
6.597228940657383,-7.539197820882643
6.601134937661917,-7.642603558343651
6.605040934666451,-7.764087337650734
6.608946931670984,-7.9045381873734195
6.612852928675518,-8.064281053324056
6.616758925680052,-8.24296769951757
6.620664922684585,-8.4394743389284
6.624570919689119,-8.651810387009327
6.628476916693653,-8.877042857861667
6.632382913698186,-9.111240892921797
6.63628891070272,-9.349444707423741
6.6401949077072535,-9.585662848150385
6.644100904711787,-9.812901070872648
6.648006901716321,-10.02322536873758
6.6519128987208545,-10.207860723631038
6.655818895725388,-10.357326030444776
6.659724892729922,-10.46160438816194
6.663630889734455,-10.510346600351907
6.667536886738989,-10.493104328705954
6.671442883743523,-10.399587952136507
6.675348880748056,-10.219942862139826
6.67925487775259,-9.945036737453874
6.683160874757124,-9.566749352677359
6.687066871761658,-9.078255748184306
6.690972868766192,-8.474293176708057
6.694878865770725,-7.751402188396412
6.698784862775259,-6.908132549095598
6.702690859779793,-5.945205416435019
6.706596856784326,-4.865624315446496
6.71050285378886,-3.6747289298156103
6.714408850793394,-2.3801875063422613
6.718314847797927,-0.9919256908993854
6.722220844802461,0.47800820822036966
6.726126841806995,2.0156392916916457
6.730032838811528,3.6053190286323806
6.733938835816062,5.230028579307793
6.7378448328205955,6.871724100324432
6.741750829825129,8.511714099487573
6.745656826829663,10.131057726140455
6.7495628238341965,11.710972121318783
6.75346882083873,13.233236639564964
6.757374817843264,14.680581898943023
6.761280814847797,16.03705220521476
6.765186811852331,17.28833089846699
6.769092808856865,18.422019536740336
6.772998805861398,19.42786349825218
6.776904802865932,20.29791847790871
6.780810799870466,21.02665439456085
6.784716796874999,21.61099532972509
6.788622793879533,22.050296204170493
6.7925287908840675,22.346258888354225
6.796434787888601,22.502792266305168
6.800340784893135,22.525822370520398
6.804246781897668,22.42306003014715
6.808152778902202,22.203734491826314
6.812058775906736,21.878302161416972
6.815964772911269,21.458139968281245
6.819870769915803,20.955232877627797
6.823776766920337,20.38186478803967
6.82768276392487,19.750321478340933
6.831588760929404,19.07261344629831
6.835494757933938,18.360225453571275
6.839400754938471,17.623898403385184
6.843306751943005,16.87344787844704
6.8472127489475385,16.117622305801618
6.851118745952072,15.364002340295562
6.855024742956606,14.618941713736271
6.8589307399611394,13.887548523168494
6.862836736965673,13.17370476427562
6.866742733970207,12.480120884229844
6.87064873097474,11.80842125560894
6.874554727979274,11.159255776142885
6.878460724983808,10.532432288591183
6.882366721988341,9.92706419537404
6.886272718992875,9.341727512299164
6.890178715997409,8.77462165812998
6.894084713001942,8.223728500288866
6.897990710006477,7.6869645558732556
6.90189670701101,7.162321761950003
6.905802704015544,6.647992857371578
6.909708701020078,6.142478135413818
6.913614698024611,5.644671106138372
6.917520695029145,5.153921422619062
6.921426692033679,4.670074249229198
6.925332689038212,4.1934860571208645
6.929238686042746,3.7250175975391846
6.93314468304728,3.2660055057941375
6.937050680051813,2.8182146086729944
6.940956677056347,2.3837735304651577
6.9448626740608805,1.9650966061252304
6.948768671065414,1.5647954070008787
6.952674668069948,1.1855833616013456
6.9565806650744815,0.8301770115722104
6.960486662079015,0.5011973855647763
6.964392659083549,0.20107480866638797
6.968298656088082,-0.06803979683945129
6.972204653092616,-0.30435440914123457
6.97611065009715,-0.5065039066270605
6.980016647101683,-0.6736047388266801
6.983922644106217,-0.805294937475517
6.987828641110751,-0.9017586530758983
6.991734638115284,-0.9637349184219558
6.995640635119818,-0.992510840048079
6.999546632124352,-0.9898998865756872
7.003452629128886,-0.9582063663919227
7.00735862613342,-0.9001775550610451
7.011264623137953,-0.8189452367580958
7.015170620142487,-0.717958657764328
7.019076617147021,-0.6009110502624443
7.022982614151554,-0.47166197050755204
7.026888611156088,-0.3341577085598342
7.030794608160622,-0.19235197105117785
7.034700605165155,-0.05012891986690422
7.038606602169689,0.08876952420445207
7.042512599174223,0.22081042392596043
7.046418596178756,0.34272918180249695
7.05032459318329,0.45158036024472975
7.0542305901878235,0.5447791141604511
7.058136587192357,0.6201326881680087
7.062042584196891,0.6758617304706455
7.065948581201424,0.7106114628014715
7.069854578205958,0.7234530131741014
7.073760575210492,0.7138754590596524
7.077666572215025,0.68176933798143
7.081572569219559,0.6274025566586114
7.085478566224093,0.5513897663608579
7.089384563228626,0.454656369974031
7.09329056023316,0.33839838556387986
7.097196557237694,0.2040394132303143
7.101102554242227,0.05318593905906681
7.105008551246762,-0.11241783487882936
7.108914548251295,-0.2909345185550876
7.112820545255829,-0.48047640122563184
7.116726542260363,-0.6791457559126474
7.120632539264896,-0.8850718112102409
7.12453853626943,-1.0964437632213186
7.128444533273964,-1.3115393493919247
7.132350530278497,-1.5287486569748456
7.136256527283031,-1.7465929878147852
7.140162524287565,-1.9637387443170409
7.144068521292098,-2.1790064353967398
7.147974518296632,-2.3913750229297777
7.1518805153011655,-2.5999819362557157
7.155786512305699,-2.8041191726222294
7.159692509310233,-3.003225973643562
7.1635985063147665,-3.1968786209690707
7.1675045033193,-3.384777928085533
7.171410500323834,-3.56673501973562
7.175316497328367,-3.742655986622717
7.179222494332901,-3.9125259822464273
7.183128491337435,-4.076393292736777
7.187034488341968,-4.234353861705912
7.190940485346502,-4.386536693001811
7.194846482351036,-4.5330904876109965
7.198752479355569,-4.674171799653706
7.202658476360103,-4.809934923194363
7.206564473364637,-4.940523648978472
7.210470470369171,-5.066064960406873
7.214376467373705,-5.186664672932008
7.218282464378238,-5.3024049621714395
7.222188461382772,-5.413343674618676
7.226094458387306,-5.519515271692977
7.230000455391839,-5.6209332233397555
7.233906452396373,-5.717593641429478
7.237812449400907,-5.809479925482505
7.24171844640544,-5.896568183195019
7.245624443409974,-5.9788331850895355
7.249530440414508,-6.056254615485072
7.253436437419041,-6.128823389899559
7.257342434423575,-6.19654782087245
7.2612484314281085,-6.259459428895734
7.265154428432642,-6.317618211589674
7.269060425437176,-6.37111720151226
7.272966422441709,-6.420086160334348
7.276872419446243,-6.464694274182594
7.280778416450777,-6.505151731815176
7.28468441345531,-6.5417100844531095
7.288590410459844,-6.574661304427206
7.292496407464378,-6.6043354804392385
7.296402404468911,-6.63109711132682
7.300308401473445,-6.6553399888083655
7.304214398477979,-6.677480693674247
7.308120395482512,-6.697950769996526
7.312026392487046,-6.717187688492008
7.31593238949158,-6.73562476295532
7.319838386496114,-6.753680241757491
7.323744383500648,-6.771745858123933
7.327650380505181,-6.790175185829799
7.331556377509715,-6.809272207853253
7.335462374514249,-6.829280560447151
7.339368371518782,-6.850373959524207
7.343274368523316,-6.8726483454764
7.34718036552785,-6.896116291981735
7.351086362532383,-6.920704209903038
7.354992359536917,-6.9462528358279645
7.3588983565414505,-6.972521424069772
7.362804353545984,-6.9991959602874365
7.366710350550518,-7.025901584915988
7.3706163475550515,-7.052219257420016
7.374522344559585,-7.077706511610017
7.378428341564119,-7.101921952947262
7.382334338568652,-7.1244529372776135
7.386240335573186,-7.14494565437577
7.39014633257772,-7.163136627756689
7.394052329582253,-7.178884443993992
7.397958326586787,-7.1922003503914524
7.401864323591321,-7.203276219608106
7.405770320595854,-7.212508283886577
7.409676317600388,-7.220514999332352
7.413582314604922,-7.228147420438448
7.417488311609455,-7.236490553213421
7.42139430861399,-7.246854316193512
7.425300305618523,-7.260752974113921
7.429206302623057,-7.279872217992709
7.433112299627591,-7.306023443668498
7.437018296632124,-7.341085221116076
7.440924293636658,-7.3869324386493815
7.444830290641192,-7.44535413576416
7.448736287645725,-7.517961589326515
7.452642284650259,-7.606088771062839
7.4565482816547926,-7.710687828854696
7.460454278659326,-7.832222737779211
7.46436027566386,-7.97056469606774
7.4682662726683935,-8.124893183256928
7.472172269672927,-8.293606830870194
7.476078266677461,-8.47424835990758
7.479984263681994,-8.663447796796499
7.483890260686528,-8.856887976430084
7.487796257691062,-9.04929596832158
7.491702254695595,-9.234463516202798
7.495608251700129,-9.405298865534421
7.499514248704663,-9.553911477524732
7.503420245709196,-9.671730110331323
7.50732624271373,-9.749653614223734
7.511232239718264,-9.778232571699084
7.515138236722797,-9.747878657450743
7.519044233727331,-9.649097344810677
7.5229502307318645,-9.472738397917437
7.526856227736399,-9.210257518301061
7.530762224740933,-8.85398161686283
7.534668221745466,-8.397369510547746
7.53857421875,-7.835259444461705
7.542480215754534,-7.164094752546622
7.546386212759067,-6.382119218693931
7.550292209763601,-5.48953429612295
7.554198206768135,-4.488611280236243
7.558104203772668,-3.3837527858994774
7.562010200777202,-2.181499414059737
7.5659161977817355,-0.8904792491108401
7.569822194786269,0.47870026138129373
7.573728191790803,1.9136165075661367
7.5776341887953365,3.400248485181433
7.58154018579987,4.923240734046993
7.585446182804404,6.466207343504735
7.589352179808937,8.012067463053372
7.593258176813471,9.543402609859799
7.597164173818005,11.042825277460066
7.601070170822538,12.493347952689975
7.604976167827072,13.878741653625262
7.608882164831606,15.183873504881447
7.612788161836139,16.395013645655396
7.616694158840673,17.50010288258595
7.620600155845207,18.48897390299803
7.62450615284974,19.353520493219722
7.628412149854274,20.087810993113763
7.632318146858808,20.68814408960067
7.636224143863342,21.153046936104516
7.640130140867876,21.483217411440997
7.644036137872409,21.681414035967983
7.647942134876943,21.752298587828754
7.651848131881477,21.702237760455958
7.65575412888601,21.53907123778108
7.659660125890544,21.271854311191216
7.6635661228950775,20.910583609556692
7.667472119899611,20.46591465967176
7.671378116904145,19.948879849154554
7.6752841139086785,19.37061494687537
7.679190110913212,18.742101675197326
7.683096107917746,18.07393295829399
7.687002104922279,17.376106431176016
7.690908101926813,16.657850627710015
7.694814098931347,15.92748701728069
7.69872009593588,15.192329773234198
7.702626092940414,14.458623874833716
7.706532089944948,13.731520908477238
7.710438086949481,13.015090779976923
7.714344083954015,12.312366509896659
7.718250080958549,11.625418385353209
7.722156077963082,10.955453005839562
7.726062074967616,10.302932203189354
7.7299680719721495,9.667706446398729
7.733874068976683,9.04915716421287
7.737780065981218,8.446342429730157
7.741686062985751,7.858140643568865
7.745592059990285,7.283387211752071
7.749498056994819,6.720999722862191
7.753404053999352,6.170087763453375
7.757310051003886,5.6300442450595956
7.76121604800842,5.100615921815616
7.765122045012953,4.581951624695804
7.769028042017487,4.07462759625118
7.7729340390220205,3.5796501487062997
7.776840036026554,3.098436660284735
7.780746033031088,2.6327766443017953
7.7846520300356215,2.1847752510941185
7.788558027040155,1.7567820766545563
7.792464024044689,1.351308540987991
7.796370021049222,0.9709373557433459
7.800276018053756,0.6182277217415577
7.80418201505829,0.2956198848040701
7.808088012062823,0.005342539828850785
7.811994009067357,-0.25067368023258874
7.815900006071891,-0.4708737469026694
7.819806003076424,-0.6541443615418767
7.823712000080958,-0.7998667118010366
7.8276179970854916,-0.9079544452782244
7.831523994090025,-0.9788760038923879
7.835429991094559,-1.0136610184681867
7.8393359880990925,-1.0138909979292632
7.843241985103627,-0.9816750436425657
7.847147982108161,-0.9196117617943943
7.851053979112694,-0.8307389233092416
7.854959976117228,-0.7184727232633437
7.858865973121762,-0.5865387149357913
7.862771970126295,-0.4388966358300519
7.866677967130829,-0.27966140557002406
7.8705839641353625,-0.113022562708877
7.874489961139896,0.056835674325365675
7.87839595814443,0.22581167942033656
7.8823019551489635,0.38995917501496874
7.886207952153497,0.5455538577198424
7.890113949158031,0.6891525431989297
7.894019946162564,0.8176437642357326
7.897925943167098,0.9282890493299475
7.901831940171632,1.0187544025914474
7.905737937176165,1.0871317906907967
7.909643934180699,1.1319507118491277
7.913549931185233,1.1521801691422036
7.917455928189766,1.1472215908386705
7.9213619251943,1.116893430438569
7.925267922198834,1.0614083360780358
7.929173919203367,0.9813439016943638
7.933079916207901,0.8776081004997922
7.9369859132124345,0.7514005554553407
7.940891910216968,0.6041708228140819
7.944797907221502,0.43757485522509254
7.948703904226036,0.2534307726632375
7.95260990123057,0.053675005324029294
7.956515898235104,-0.15968021429300647
7.960421895239637,-0.38458713919205806
7.964327892244171,-0.6189998267036195
7.968233889248705,-0.8609078734076605
7.972139886253238,-1.108366093189812
7.976045883257772,-1.3595198113708737
7.9799518802623055,-1.6126255936233094
7.983857877266839,-1.8660673699303065
7.987763874271373,-2.1183680471406854
7.9916698712759064,-2.368196824915403
7.99557586828044,-2.614372535637747
7.999481865284974,-2.8558634163785426
8.003387862289507,-3.0917837882543777
8.007293859294041,-3.3213881643203886
8.011199856298575,-3.544063331166538
8.015105853303108,-3.759318952104716
8.019011850307642,-3.9667772224734588
8.022917847312176,-4.166162072077062
8.02682384431671,-4.357288358658149
8.030729841321243,-4.5400514326392685
8.034635838325777,-4.714417380593767
8.03854183533031,-4.880414176624701
8.042447832334844,-5.038123890670574
8.046353829339377,-5.187676024261018
8.050259826343911,-5.329241970702463
8.054165823348445,-5.4630305309123655
8.058071820352978,-5.589284360387802
8.061977817357512,-5.708277178744657
8.065883814362046,-5.82031154197491
8.06978981136658,-5.925716959517108
8.073695808371113,-6.024848133261854
8.077601805375647,-6.118083102982505
8.08150780238018,-6.205821101206493
8.085413799384714,-6.288479948698471
8.089319796389248,-6.3664928576725
8.093225793393781,-6.440304551467867
8.097131790398315,-6.510366654446349
8.101037787402849,-6.5771323520654335
8.104943784407384,-6.641050366379583
8.108849781411918,-6.702558334780942
8.112755778416451,-6.762075718085233
8.116661775420985,-6.819996396988212
8.120567772425519,-6.876681142855581
8.124473769430052,-6.932450169685266
8.128379766434586,-6.98757598928852
8.13228576343912,-7.0422768019821005
8.136191760443653,-7.096710661148706
8.140097757448187,-7.150970652553518
8.14400375445272,-7.205081328696698
8.147909751457254,-7.258996634795278
8.151815748461788,-7.3125995558497685
8.155721745466321,-7.3657037028088945
8.159627742470855,-7.418057038813857
8.163533739475389,-7.469347922259714
8.167439736479922,-7.519213610127372
8.171345733484456,-7.56725132084265
8.17525173048899,-7.613031899074037
8.179157727493523,-7.656116053986241
8.183063724498057,-7.696073056657715
8.18696972150259,-7.732501681513123
8.190875718507124,-7.7650530615055775
8.194781715511658,-7.793454999301845
8.198687712516191,-7.817537139987824
8.202593709520725,-7.837256269245185
8.206499706525259,-7.852720860381215
8.210405703529792,-7.864213861186224
8.214311700534326,-7.872212595537353
8.21821769753886,-7.8774045637633945
8.222123694543393,-7.880697869000756
8.226029691547927,-7.883224982771238
8.22993568855246,-7.886338599663507
8.233841685556994,-7.891598424882401
8.237747682561528,-7.900747894406238
8.241653679566062,-7.915680048358935
8.245559676570595,-7.938392064380565
8.249465673575129,-7.970928306978298
8.253371670579662,-8.015312155754456
8.257277667584196,-8.073467331515385
8.26118366458873,-8.147129932728024
8.265089661593263,-8.237752910485108
8.268995658597797,-8.346405229870877
8.27290165560233,-8.473668468555882
8.276807652606864,-8.619534066700279
8.280713649611398,-8.783304841587421
8.284619646615932,-8.963504691194714
8.288525643620465,-9.157800609113021
8.292431640624999,-9.362941196618314
8.296337637629533,-9.57471576707631
8.300243634634066,-9.787937878304025
8.3041496316386,-9.996456690655842
8.308055628643134,-10.193198929830633
8.311961625647667,-10.370243438808147
8.315867622652203,-10.518929346376835
8.319773619656736,-10.62999778258671
8.32367961666127,-10.693765865106943
8.327585613665804,-10.700330404333881
8.331491610670337,-10.639797476329322
8.33539760767487,-10.502532744727466
8.339303604679404,-10.279426233409238
8.343209601683938,-9.962164220604574
8.347115598688472,-9.543500100605833
8.351021595693005,-9.017515495406986
8.354927592697539,-8.379862641175208
8.358833589702073,-7.627979157810924
8.362739586706606,-6.761266753739316
8.36664558371114,-5.781226225544898
8.370551580715674,-4.691542268083612
8.374457577720207,-3.4981130818580164
8.378363574724741,-2.2090214997482773
8.382269571729275,-0.8344462882561501
8.386175568733808,0.6134856693496765
8.390081565738342,2.120903515925249
8.393987562742875,3.6724480704557396
8.39789355974741,5.251572286109452
8.401799556751943,6.8408781666547895
8.405705553756476,8.422480442735859
8.40961155076101,9.978386320575908
8.413517547765544,11.490880027703756
8.417423544770077,12.942900715509769
8.421329541774611,14.318402539533277
8.425235538779145,15.602686408924837
8.429141535783678,16.78269394235698
8.433047532788212,17.847255539215176
8.436953529792746,18.78728611023033
8.44085952679728,19.59592383987435
8.444765523801813,20.268609297523636
8.448671520806347,20.803104197633925
8.45257751781088,21.199451054900916
8.456483514815414,21.459876817584604
8.460389511819947,21.58864522747872
8.464295508824481,21.59186409482396
8.468201505829015,21.47725484865831
8.472107502833548,21.253892598040625
8.476013499838082,20.93192550052122
8.479919496842616,20.522282477069226
8.48382549384715,20.03637824531419
8.487731490851683,19.485824284284757
8.491637487856217,18.882153722147347
8.49554348486075,18.23656728971899
8.499449481865284,17.55970644844887
8.503355478869818,16.861458627671382
8.507261475874351,16.150798239703192
8.511167472878885,15.435665830336102
8.515073469883419,14.722886412368235
8.518979466887952,14.01812676377023
8.522885463892486,13.325890288254486
8.526791460897021,12.649546967365124
8.530697457901555,11.991395006553498
8.534603454906089,11.352750013262792
8.538509451910622,10.734056956298621
8.542415448915156,10.135019749642126
8.54632144591969,9.554743081160614
8.550227442924223,8.9918810626251
8.554133439928757,8.444787402408128
8.55803943693329,7.911662082353829
8.561945433937824,7.390689938171988
8.565851430942358,6.880167078003437
8.569757427946891,6.378611704000808
8.573663424951425,5.884856602752244
8.577569421955959,5.3981213171479245
8.581475418960492,4.918062779741631
8.585381415965026,4.444803951331477
8.58928741296956,3.97894074523492
8.593193409974093,3.521528206321706
8.597099406978627,3.0740475354383032
8.60100540398316,2.638356088367911
8.604911400987694,2.2166229211036343
8.608817397992228,1.8112527906934197
8.612723394996761,1.4248017477003194
8.616629392001295,1.0598875706936846
8.620535389005829,0.7190982972212078
8.624441386010362,0.40490200505977975
8.628347383014896,0.11956080106851372
8.63225338001943,-0.13494830572120461
8.636159377023963,-0.3570033212357667
8.640065374028497,-0.54539605423808
8.64397137103303,-0.69937830012931
8.647877368037564,-0.8186944123379065
8.651783365042098,-0.9035997248494613
8.655689362046632,-0.9548647511040944
8.659595359051165,-0.9737655216650538
8.663501356055699,-0.962060823242808
8.667407353060232,-0.9219574544575913
8.671313350064766,-0.8560649110801919
8.6752193470693,-0.7673411497622336
8.679125344073833,-0.6590312512098089
8.683031341078367,-0.5346009104401303
8.6869373380829,-0.39766672445830986
8.690843335087434,-0.25192522968629705
8.694749332091968,-0.10108256778952879
8.698655329096502,0.05121346442519795
8.702561326101035,0.20143739022853
8.706467323105569,0.3462446612192448
8.710373320110103,0.48252373084176536
8.714279317114636,0.6074406671154122
8.71818531411917,0.7184756296862279
8.722091311123704,0.8134507893826735
8.725997308128237,0.8905495164031577
8.72990330513277,0.9483268997594627
8.733809302137304,0.9857118801428305
8.73771529914184,1.0020014763063236
8.741621296146374,0.9968477575281994
8.745527293150907,0.9702383587521027
8.74943329015544,0.9224714485250736
8.753339287159974,0.8541261417422943
8.757245284164508,0.7660293992207838
8.761151281169042,0.659220474868384
8.765057278173575,0.5349139600762067
8.768963275178109,0.394462436019418
8.772869272182643,0.23931968048234958
8.776775269187176,0.0710052898456892
8.78068126619171,-0.10892852734475399
8.784587263196244,-0.2989273472707912
8.788493260200777,-0.49746160876424506
8.792399257205311,-0.7030499971645275
8.796305254209845,-0.91427889494596
8.800211251214378,-1.1298177933808797
8.804117248218912,-1.3484306866001503
8.808023245223445,-1.5689835867120172
8.81192924222798,-1.7904484031781227
8.815835239232513,-2.011903519043668
8.819741236237046,-2.2325314691351053
8.82364723324158,-2.4516141798550795
8.827553230246114,-2.6685262661648705
8.831459227250647,-2.8827268986999735
8.835365224255181,-3.093750753161198
8.839271221259715,-3.301198536120377
8.843177218264248,-3.5047275476269277
8.847083215268782,-3.7040426933591695
8.850989212273316,-3.898888299715137
8.85489520927785,-4.089041016646396
8.858801206282383,-4.274304017933894
8.862707203286917,-4.454502629947848
8.86661320029145,-4.62948144084153
8.870519197295984,-4.799102865729343
8.874425194300517,-4.9632470726390805
8.878331191305051,-5.121813111503595
8.882237188309585,-5.274721036290274
8.886143185314118,-5.421914770115282
8.890049182318652,-5.563365435797609
8.893955179323186,-5.699074860079777
8.89786117632772,-5.829078958343567
8.901767173332253,-5.9534507171893205
8.905673170336787,-6.072302513422985
8.90957916734132,-6.185787538219093
8.913485164345854,-6.294100132727127
8.917391161350388,-6.397474884324207
8.921297158354921,-6.496184379331376
8.925203155359455,-6.590535556766479
8.929109152363988,-6.680864657392871
8.933015149368522,-6.767530812095685
8.936921146373056,-6.8509083629377105
8.94082714337759,-6.931378058774057
8.944733140382123,-7.0093173147915655
8.948639137386659,-7.08508977149413
8.952545134391192,-7.1590344329792766
8.956451131395726,-7.231454706045463
8.96035712840026,-7.302607699610083
8.964263125404793,-7.3726941766356076
8.968169122409327,-7.441849576464652
8.97207511941386,-7.510136542145502
8.975981116418394,-7.57753939287336
8.979887113422928,-7.643960973933051
8.983793110427461,-7.709222293379314
8.987699107431995,-7.773065314073985
8.991605104436529,-7.835159209755597
8.995511101441062,-7.895110313139475
8.999417098445596,-7.952475881948808
9.00332309545013,-8.006781685449424
9.007229092454663,-8.057543270680013
9.011135089459197,-8.10429060645052
9.01504108646373,-8.146595627923842
9.018947083468264,-8.18410202014536
9.022853080472798,-8.21655639150662
9.026759077477331,-8.243839805299183
9.030665074481865,-8.265998467704705
9.034571071486399,-8.28327222294501
9.038477068490932,-8.296119390409105
9.042383065495466,-8.305236403884912
9.0462890625,-8.311570688546544
9.050195059504533,-8.316325245033118
9.054101056509067,-8.320953508217826
9.0580070535136,-8.327143215574711
9.061913050518134,-8.336788258597823
9.065819047522668,-8.351947800199106
9.069725044527202,-8.374792318392547
9.073631041531735,-8.407536675941786
9.077537038536269,-8.452360808038499
9.081443035540802,-8.511319153431776
9.085349032545336,-8.58624051359645
9.08925502954987,-8.678620591330928
9.093161026554403,-8.78951001364072
9.097067023558937,-8.919401160593216
9.10097302056347,-9.068117577065356
9.104879017568004,-9.234710112223942
9.108785014572538,-9.417364186765386
9.112691011577072,-9.613322706494024
9.116597008581605,-9.81882910162148
9.120503005586139,-10.029094757231611
9.124409002590673,-10.238294700098477
9.128314999595206,-10.439594815499934
9.13222099659974,-10.625213087530014
9.136126993604273,-10.78651639886297
9.140032990608807,-10.914153311156578
9.14393898761334,-10.998222004692447
9.147844984617874,-11.028471223847944
9.151750981622408,-10.994530700383581
9.155656978626942,-10.886166163303942
9.159562975631477,-10.69355275155469
9.16346897263601,-10.407559486354403
9.167374969640544,-10.020036495900648
9.171280966645078,-9.524095975644627
9.175186963649612,-8.914377464460134
9.179092960654145,-8.187287962309115
9.182998957658679,-7.341207735767198
9.186904954663213,-6.376653364397799
9.190810951667746,-5.296390664901615
9.19471694867228,-4.105491562902018
9.198622945676814,-2.811330716560522
9.202528942681347,-1.4235196669029266
9.206434939685881,0.046221582657986066
9.210340936690415,1.5842534603111347
9.214246933694948,3.175261929217362
9.218152930699482,4.802553492663161
9.222058927704015,6.4483919636932345
9.22596492470855,8.094367326492002
9.229870921713083,9.721785842121625
9.233776918717616,11.312069786484882
9.23768291572215,12.847154883168866
9.241588912726684,14.309873617129407
9.245494909731217,15.684313175517888
9.249400906735751,16.956137728685253
9.253306903740285,18.112866089968676
9.257212900744818,19.14409741572946
9.261118897749352,20.04167945510437
9.265024894753886,20.79981585303505
9.26893089175842,21.415111068412426
9.272836888762953,21.88655351059392
9.276742885767487,22.21543944553538
9.28064888277202,22.40524200825099
9.284554879776554,22.461431222240837
9.288460876781087,22.391252221885722
9.292366873785621,22.203469866893165
9.296272870790155,21.908088608794248
9.300178867794688,21.51605681190237
9.304084864799222,21.03896475148388
9.307990861803756,20.488745228168813
9.31189685880829,19.87738517784333
9.315802855812823,19.21665585646962
9.319708852817357,18.51786818153534
9.32361484982189,17.79165866217234
9.327520846826424,17.04781009641122
9.331426843830958,16.295109904643677
9.335332840835491,15.541247649609165
9.339238837840025,14.792752008477908
9.343144834844558,14.054966250930656
9.347050831849092,13.33206017227456
9.350956828853626,12.62707546023429
9.35486282585816,11.942000659268734
9.358768822862693,11.277871251678674
9.362674819867227,10.634889908567896
9.36658081687176,10.012561677950924
9.370486813876296,9.409838768390989
9.37439281088083,8.825269645988115
9.378298807885363,8.25714737756926
9.382204804889897,7.703652507251425
9.38611080189443,7.162986228001271
9.390016798898964,6.633490183120083
9.393922795903498,6.113749881941443
9.397828792908031,5.602679415706292
9.401734789912565,5.09958588961384
9.405640786917099,4.604212721997163
9.409546783921632,4.116761679163386
9.413452780926166,3.6378941940974214
9.4173587779307,3.1687131405670224
9.421264774935233,2.710726785390115
9.425170771939767,2.2657971078782926
9.4290767689443,1.8360750471322098
9.432982765948834,1.4239255087262377
9.436888762953368,1.031845129611846
9.440794759957901,0.6623758643951472
9.444700756962435,0.31801742136800853
9.448606753966969,0.0011414497148079174
9.452512750971502,-0.28608983021729156
9.456418747976036,-0.5417981420476269
9.46032474498057,-0.7644547401856737
9.464230741985103,-0.9529353756095529
9.468136738989637,-1.1065633571896873
9.47204273599417,-1.225139848266302
9.475948732998704,-1.3089609612361048
9.479854730003238,-1.3588216230725523
9.483760727007772,-1.3760065705113926
9.487666724012305,-1.3622691851917719
9.491572721016839,-1.319799188243236
9.495478718021372,-1.2511804743366168
9.499384715025906,-1.1593405725336816
9.50329071203044,-1.0474933726658315
9.507196709034973,-0.9190768506326278
9.511102706039507,-0.777687564991948
9.51500870304404,-0.6270136832810755
9.518914700048574,-0.47076823389947076
9.522820697053108,-0.3126241735424563
9.526726694057642,-0.15615271746956963
9.530632691062175,-0.004766207332161201
9.534538688066709,0.13833340374350217
9.538444685071243,0.2701995791283541
9.542350682075776,0.388179087704542
9.54625667908031,0.4899423203737835
9.550162676084843,0.5735058135093443
9.554068673089377,0.6372469608635796
9.55797467009391,0.6799110820335607
9.561880667098444,0.7006111831201791
9.565786664102978,0.6988208909808106
9.569692661107512,0.6743611645345637
9.573598658112045,0.6273814837144318
9.577504655116579,0.5583362883961189
9.581410652121114,0.4679574862971682
9.585316649125648,0.3572238715857579
9.589222646130182,0.22732829663908055
9.593128643134715,0.07964342041930574
9.597034640139249,-0.08431317904492923
9.600940637143783,-0.2629137907522593
9.604846634148316,-0.4544545795958271
9.60875263115285,-0.6571882123549838
9.612658628157384,-0.8693545714500998
9.616564625161917,-1.0892091072849197
9.62047062216645,-1.3150484621814504
9.624376619170985,-1.5452330815439366
9.628282616175518,-1.7782066097097624
9.632188613180052,-2.012511947868625
9.636094610184585,-2.246803928482567
9.640000607189119,-2.479858633930771
9.643906604193653,-2.7105794557971303
9.647812601198186,-2.938000054495452
9.65171859820272,-3.1612844360089194
9.655624595207254,-3.379724412736302
9.659530592211787,-3.5927347582332145
9.663436589216321,-3.799846400502803
9.667342586220855,-4.000698024871731
9.671248583225388,-4.195026474756517
9.675154580229922,-4.382656346129514
9.679060577234456,-4.563489168608059
9.68296657423899,-4.737492552251266
9.686872571243523,-4.9046896539776315
9.690778568248057,-5.065149281040081
9.69468456525259,-5.218976901823747
9.698590562257124,-5.366306777628115
9.702496559261657,-5.507295364954779
9.706402556266191,-5.642116068560992
9.710308553270725,-5.770955353932134
9.714214550275258,-5.894010156873433
9.718120547279792,-6.01148646073648
9.722026544284326,-6.123598851470241
9.72593254128886,-6.2305708101013355
9.729838538293393,-6.332635463861475
9.733744535297927,-6.430036492874808
9.73765053230246,-6.5230288803928556
9.741556529306994,-6.611879201772722
9.745462526311528,-6.696865170928526
9.749368523316061,-6.7782742024541
9.753274520320595,-6.856400802062267
9.757180517325128,-6.9315426659207615
9.761086514329662,-7.003995448832259
9.764992511334196,-7.074046249341206
9.76889850833873,-7.141965953475077
9.772804505343263,-7.208000674138235
9.776710502347797,-7.272362616005116
9.78061649935233,-7.335220781726937
9.784522496356864,-7.396692009867613
9.788428493361398,-7.456832893654261
9.792334490365933,-7.515633167885864
9.796240487370467,-7.573011165056644
9.800146484375,-7.628811927421634
9.804052481379534,-7.682808516731626
9.807958478384068,-7.734706986116845
9.811864475388601,-7.784155368760192
9.815770472393135,-7.830756896609497
9.819676469397669,-7.874087491961817
9.823582466402202,-7.913717379405631
9.827488463406736,-7.949236450977814
9.83139446041127,-7.980282790557212
9.835300457415803,-8.006573532815532
9.839206454420337,-8.027937006929596
9.84311245142487,-8.044344906072858
9.847018448429404,-8.055943041339843
9.850924445433938,-8.063079094171297
9.854830442438471,-8.066325685073759
9.858736439443005,-8.06649703816157
9.862642436447539,-8.064657549237305
9.866548433452072,-8.062120666460265
9.870454430456606,-8.060436671531326
9.87436042746114,-8.061368207377823
9.878266424465673,-8.066852734077973
9.882172421470207,-8.078951503454979
9.88607841847474,-8.09978511625352
9.889984415479274,-8.131456252528704
9.893890412483808,-8.175960730959968
9.897796409488341,-8.235088638383022
9.901702406492875,-8.310317856494942
9.905608403497409,-8.402702875939356
9.909514400501942,-8.5127623048261
9.913420397506476,-8.640368924422486
9.91732639451101,-8.78464649457183
9.921232391515543,-8.943877741565084
9.925138388520077,-9.115428049821615
9.92904438552461,-9.295689306996785
9.932950382529144,-9.480048105510098
9.936856379533678,-9.66288207290963
9.940762376538212,-9.837587486294083
9.944668373542745,-9.99664052680107
9.948574370547279,-10.131693561591163
9.952480367551813,-10.233706724134985
9.956386364556346,-10.293113829159443
9.96029236156088,-10.300020345144427
9.964198358565413,-10.244429801447
9.968104355569947,-10.116493682295639
9.97201035257448,-9.90677861428006
9.975916349579014,-9.606543548260282
9.979822346583548,-9.208018730978239
9.983728343588082,-8.704677612361685
9.987634340592615,-8.09149249051872
9.991540337597149,-7.365164695842733
9.995446334601683,-6.524320482480468
9.999352331606218,-5.5696645369312865
10.003258328610752,-4.5040841186033616
10.007164325615285,-3.332698285569811
10.011070322619819,-2.062848381863127
10.014976319624353,-0.7040279050872618
10.018882316628886,0.7322480439563342
10.02278831363342,2.232631392867642
10.026694310637954,3.782183379597682
10.030600307642487,5.364664093539487
10.03450630464702,6.962861145433388
10.038412301651555,8.558947895125282
10.042318298656088,10.134860587074094
10.046224295660622,11.67268307145305
10.050130292665155,13.155027549815836
10.054036289669689,14.56539998419797
10.057942286674223,15.888539432515154
10.061848283678756,17.11072158764327
10.06575428068329,18.22001815252939
10.069660277687824,19.206505315514335
10.073566274692357,20.062416425288102
10.077472271696891,20.782235924197302
10.081378268701425,21.362733600759462
10.085284265705958,21.802940187917432
10.089190262710492,22.104067188848504
10.093096259715026,22.2693754914379
10.09700225671956,22.303998780986095
10.100908253724093,22.214728935889195
10.104814250728626,22.009771463783387
10.10872024773316,21.69847959047645
10.112626244737694,21.29107584869054
10.116532241742227,20.798369938356537
10.120438238746761,20.231481266053688
10.124344235751295,19.60157394857344
10.128250232755828,18.91961122217068
10.132156229760362,18.196135177665006
10.136062226764896,17.441076588086073
10.13996822376943,16.663598357160208
10.143874220773963,15.871974840264256
10.147780217778497,15.07350801915122
10.15168621478303,14.274480288998138
10.155592211787564,13.480142477821188
10.159498208792098,12.694734695371185
10.163404205796631,11.92153672666091
10.167310202801165,11.162943963383288
10.171216199805698,10.420564317361746
10.175122196810232,9.695331190325518
10.179028193814766,8.987627384342145
10.1829341908193,8.297414822284745
10.186840187823833,7.624365097830511
10.190746184828367,6.967986175302212
10.1946521818329,6.327740993098795
10.198558178837434,5.703154269504527
10.202464175841968,5.093904443060212
10.206370172846501,4.49989837654511
10.210276169851037,3.921327188162321
10.21418216685557,3.358702319908146
10.218088163860104,2.81287168637866
10.221994160864638,2.2850164441610943
10.225900157869171,1.7766295615764156
10.229806154873705,1.2894779329119679
10.233712151878239,0.8255502558412442
10.237618148882772,0.3869932646954945
10.241524145887306,-0.023960821110538048
10.24543014289184,-0.40507261756365304
10.249336139896373,-0.7541766016570611
10.253242136900907,-1.0692618343730775
10.25714813390544,-1.3485495251109676
10.261054130909974,-1.5905648183298093
10.264960127914508,-1.7942004918173171
10.268866124919041,-1.9587706221214156
10.272772121923575,-2.0840526809060385
10.276678118928109,-2.17031696060669
10.280584115932642,-2.218342673302424
10.284490112937176,-2.2294205084127476
10.28839610994171,-2.205341858944083
10.292302106946243,-2.148375320247109
10.296208103950777,-2.0612314190618557
10.30011410095531,-1.947016835480641
10.304020097959844,-1.8091796299707885
10.307926094964378,-1.651447177653824
10.311832091968911,-1.477758640755483
10.315738088973445,-1.2921938776951318
10.319644085977979,-1.0989006956638385
10.323550082982512,-0.9020223063527028
10.327456079987046,-0.7056267467927063
10.33136207699158,-0.5136398853735946
10.335268073996113,-0.32978345431504974
10.339174071000647,-0.1575193420432629
10.34308006800518,-1.150188186395504e-06
10.346986065009714,0.13996622161568442
10.350892062014248,0.259958446310933
10.354798059018782,0.35795482221203906
10.358704056023315,0.43235246887761386
10.362610053027849,0.48197184537758675
10.366516050032383,0.506053968237947
10.370422047036916,0.5042498800072448
10.37432804404145,0.47660306600971697
10.378234041045983,0.42352563472508914
10.382140038050517,0.3457691656094707
10.38604603505505,0.24439118716543276
10.389952032059584,0.12071827862237933
10.393858029064118,-0.023693207667050624
10.397764026068652,-0.18709782695490343
10.401670023073185,-0.36760219297889235
10.405576020077719,-0.5632057287296345
10.409482017082253,-0.7718402261023947
10.413388014086786,-0.9914075161605213
10.41729401109132,-1.2198146547572384
10.421200008095855,-1.4550061383420239
10.425106005100389,-1.694992778645141
10.429012002104923,-1.9378769792972221
10.432917999109456,-2.181874269005896
10.43682399611399,-2.4253310514295485
10.440729993118524,-2.6667386282794374
10.444635990123057,-2.9047436366783197
10.44854198712759,-3.138155112051632
10.452447984132125,-3.365948441999695
10.456353981136658,-3.587266513560918
10.460259978141192,-3.801418375678952
10.464165975145725,-4.007875740972542
10.468071972150259,-4.2062676373124575
10.471977969154793,-4.396373492282621
10.475883966159326,-4.578114895134601
10.47978996316386,-4.751546234743709
10.483695960168394,-4.9168443622329185
10.487601957172927,-5.074297377557747
10.491507954177461,-5.224292594711988
10.495413951181995,-5.367303704355327
10.499319948186528,-5.50387712915016
10.503225945191062,-5.634617558846711
10.507131942195596,-5.760172661186568
10.51103793920013,-5.881216991836691
10.514943936204663,-5.998435171341278
10.518849933209196,-6.112504457709088
10.52275593021373,-6.224076916669814
10.526661927218264,-6.333761473528379
10.530567924222797,-6.442106215603638
10.534473921227331,-6.549581396490482
10.538379918231865,-6.656563666570268
10.542285915236398,-6.763322112088313
10.546191912240932,-6.870006721896121
10.550097909245466,-6.976639911589356
10.55400390625,-7.083111715339631
10.557909903254533,-7.189179203600572
10.561815900259067,-7.294470598857371
10.5657218972636,-7.398494441978601
10.569627894268134,-7.500654010414488
10.573533891272668,-7.600267009999524
10.577439888277201,-7.696590359547693
10.581345885281735,-7.788849668230481
10.585251882286268,-7.876272777465689
10.589157879290802,-7.958126510103869
10.593063876295336,-8.033755549001635
10.59696987329987,-8.10262216382707
10.600875870304403,-8.164345328415452
10.604781867308937,-8.218737630225574
10.60868786431347,-8.265838276918783
10.612593861318004,-8.305940460386873
10.616499858322538,-8.339611352174172
10.620405855327071,-8.367703081396069
10.624311852331605,-8.391353190699512
10.628217849336139,-8.411973279509263
10.632123846340674,-8.431224826639715
10.636029843345208,-8.450981533876162
10.639935840349741,-8.473277943342033
10.643841837354275,-8.500244546625026
10.647747834358809,-8.534030112110809
10.651653831363342,-8.576712495236132
10.655559828367876,-8.630199748129721
10.65946582537241,-8.696123891655681
10.663371822376943,-8.77573023359293
10.667277819381477,-8.869765589605427
10.67118381638601,-8.978369166123732
10.675089813390544,-9.100970173751685
10.678995810395078,-9.236196434863604
10.682901807399611,-9.381798310159366
10.686807804404145,-9.534592179515641
10.690713801408679,-9.690427459873911
10.694619798413212,-9.84418071944038
10.698525795417746,-9.989779851320872
10.70243179242228,-10.120260505791256
10.706337789426813,-10.227856061039505
10.710243786431347,-10.304121357572493
10.71414978343588,-10.340089259665508
10.718055780440414,-10.326457874056544
10.721961777444948,-10.253804994465396
10.725867774449481,-10.112825099435454
10.729773771454015,-9.894583063956311
10.733679768458549,-9.590777708207876
10.737585765463082,-9.194007455135614
10.741491762467616,-8.698029754584013
10.74539775947215,-8.098005600907179
10.749303756476683,-7.390720459051195
10.753209753481217,-6.574773243987539
10.75711575048575,-5.650725677667127
10.761021747490284,-4.62120536685001
10.764927744494818,-3.4909572769702994
10.768833741499352,-2.2668398771840446
10.772739738503885,-0.9577640400828781
10.776645735508419,0.42542527624935206
10.780551732512953,1.870122537605238
10.784457729517486,3.3621863414542177
10.78836372652202,4.886209481290425
10.792269723526553,6.425826875912046
10.796175720531087,7.9640524935586265
10.80008171753562,9.483635352854876
10.803987714540154,10.967424008469715
10.807893711544688,12.398728655130677
10.811799708549222,13.761670116429734
10.815705705553755,15.041505513586785
10.819611702558289,16.22492130556806
10.823517699562823,17.300285611924007
10.827423696567356,18.257853216998736
10.83132969357189,19.089918342932805
10.835235690576424,19.790912097369723
10.839141687580957,20.357443375787984
10.843047684585493,20.788283854646274
10.846953681590026,21.08429948085375
10.85085967859456,21.248332483097343
10.854765675599094,21.285039347974088
10.858671672603627,21.2006913761043
10.86257766960816,21.002945329643307
10.866483666612694,20.700592284331048
10.870389663617228,20.3032931000701
10.874295660621762,19.821308929291725
10.878201657626295,19.265234907974087
10.882107654630829,18.645744645197322
10.886013651635363,17.973352376044623
10.889919648639896,17.25819870757861
10.89382564564443,16.509864810480522
10.897731642648964,15.737218733795446
10.901637639653497,14.948296291545915
10.905543636658031,14.15021773103326
10.909449633662565,13.349140184159483
10.913355630667098,12.550244762137188
10.917261627671632,11.757756113044703
10.921167624676166,10.974991348155124
10.9250736216807,10.204434478521206
10.928979618685233,9.4478319038126
10.932885615689766,8.70630407087451
10.9367916126943,7.980468174060842
10.940697609698834,7.2705667016107025
10.944603606703367,6.576596735439892
10.948509603707901,5.898435174162805
10.952415600712435,5.235955455141968
10.956321597716968,4.589131881462383
10.960227594721502,3.958128291595814
10.964133591726036,3.343368518625098
10.96803958873057,2.7455868463650064
10.971945585735103,2.1658574551595917
10.975851582739637,1.6056026344175582
10.97975757974417,1.0665802969224052
10.983663576748704,0.5508520382252218
10.987569573753238,0.060733622003154145
10.991475570757771,-0.4012696788708425
10.995381567762305,-0.8325400101629863
10.999287564766838,-1.230432925804917
11.003193561771372,-1.5923690203102001
11.007099558775906,-1.9159276961875793
11.01100555578044,-2.1989395900389557
11.014911552784973,-2.4395743276037654
11.018817549789507,-2.636420530384225
11.02272354679404,-2.7885553423997576
11.026629543798574,-2.89560117019827
11.030535540803108,-2.9577678154784217
11.034441537807641,-2.97587870900096
11.038347534812175,-2.951380507555839
11.042253531816709,-2.886335873248479
11.046159528821242,-2.7833997975548073
11.050065525825776,-2.6457803439668495
11.053971522830311,-2.4771851468846333
11.057877519834845,-2.281755407300596
11.061783516839379,-2.063989457084729
11.065689513843912,-1.8286582155649744
11.069595510848446,-1.58071502987907
11.07350150785298,-1.3252024725229972
11.077407504857513,-1.0671586667946522
11.081313501862047,-0.8115256273033933
11.08521949886658,-0.5630619447924118
11.089125495871114,-0.3262619208750251
11.093031492875648,-0.10528297947219098
11.096937489880181,0.09611714024953956
11.100843486884715,0.2746322568114254
11.104749483889249,0.42744790143032646
11.108655480893782,0.5522693432454574
11.112561477898316,0.6473374349079055
11.11646747490285,0.7114325687119881
11.120373471907383,0.7438673410294517
11.124279468911917,0.7444687893679136
11.12818546591645,0.7135512855337071
11.132091462920984,0.6518813361341433
11.135997459925518,0.560635656436928
11.139903456930051,0.44135394613531914
11.143809453934585,0.29588780860855907
11.147715450939119,0.12634722338244792
11.151621447943652,-0.0649540892347972
11.155527444948186,-0.2755531747405827
11.15943344195272,-0.5028911118120951
11.163339438957253,-0.7443640719348757
11.167245435961787,-0.9973713525930324
11.17115143296632,-1.2593597158979377
11.175057429970854,-1.5278635095737827
11.178963426975388,-1.800540181709387
11.182869423979922,-2.075200921058311
11.186775420984455,-2.3498362589348996
11.190681417988989,-2.6226365565100114
11.194587414993523,-2.8920073735978855
11.198493411998056,-3.156579774072586
11.20239940900259,-3.415215671951839
11.206305406007123,-3.6670083644880247
11.210211403011657,-3.9112784378622836
11.21411740001619,-4.147565270480391
11.218023397020724,-4.375614401043135
11.221929394025258,-4.595361075430354
11.225835391029792,-4.806910339080593
11.229741388034325,-5.010514100106091
11.233647385038859,-5.206545651999668
11.237553382043393,-5.395472211617975
11.241459379047926,-5.577826095398542
11.24536537605246,-5.754175220980028
11.249271373056994,-5.925093678509938
11.253177370061527,-6.091133161544699
11.25708336706606,-6.252796077012305
11.260989364070594,-6.41051116280343
11.26489536107513,-6.564612426292031
11.268801358079664,-6.715322174428879
11.272707355084197,-6.86273883406151
11.27661335208873,-7.0068301590924476
11.280519349093264,-7.147432289544473
11.284425346097798,-7.2842549683862075
11.288331343102332,-7.4168930381773235
11.292237340106865,-7.5448441355525775
11.296143337111399,-7.667532282767512
11.300049334115933,-7.784336848409083
11.303955331120466,-7.894626120996936
11.307861328125,-7.99779451701874
11.311767325129534,-8.093302236646238
11.315673322134067,-8.180715993710356
11.319579319138601,-8.259749289047035
11.323485316143135,-8.330300575330286
11.327391313147668,-8.39248758388259
11.331297310152202,-8.446676056054596
11.335203307156736,-8.49350114914022
11.33910930416127,-8.533879873909976
11.343015301165803,-8.56901307090538
11.346921298170336,-8.600375647326134
11.35082729517487,-8.62969407546958
11.354733292179404,-8.658910494831668
11.358639289183937,-8.690133158315282
11.362545286188471,-8.72557341120182
11.366451283193005,-8.767469879809571
11.370357280197538,-8.818001062806937
11.374263277202072,-8.879188047392894
11.378169274206606,-8.952789598396384
11.38207527121114,-9.040192372440188
11.385981268215673,-9.142299471937108
11.389887265220207,-9.259420954206067
11.39379326222474,-9.391170228484519
11.397699259229274,-9.53637048753626
11.401605256233807,-9.692975411588165
11.405511253238341,-9.858008333339237
11.409417250242875,-10.02752384985761
11.413323247247408,-10.196595500640452
11.417229244251942,-10.359332596530365
11.421135241256476,-10.508928583367755
11.42504123826101,-10.63774246610367
11.428947235265543,-10.737413820153366
11.432853232270077,-10.799010801506022
11.43675922927461,-10.813209367848026
11.440665226279144,-10.77050067946583
11.444571223283678,-10.661422407301563
11.448477220288211,-10.476808487803579
11.452383217292745,-10.208050785069648
11.456289214297279,-9.847365206087092
11.460195211301812,-9.38805411853649
11.464101208306346,-8.824756491362546
11.46800720531088,-8.153677056301039
11.471913202315413,-7.37278600220731
11.475819199319949,-6.481981277254594
11.479725196324482,-5.4832064840896
11.483631193329016,-4.380518589186251
11.48753719033355,-3.1801011913541464
11.491443187338083,-1.8902208504470002
11.495349184342617,-0.5211258964464968
11.49925518134715,0.9151108587397825
11.503161178351684,2.404802085668068
11.507067175356218,3.932903249597389
11.510973172360751,5.483310211424994
11.514879169365285,7.039188580789345
11.518785166369819,8.583325125844416
11.522691163374352,10.098490753262517
11.526597160378886,11.567804181047103
11.53050315738342,12.975085448749375
11.534409154387953,14.305188838541282
11.538315151392487,15.54430559185712
11.54222114839702,16.680227959088484
11.546127145401554,17.702567559420697
11.550033142406088,18.60292268904613
11.553939139410621,19.374991026328566
11.557845136415155,20.01462606626928
11.561751133419689,20.519837498218806
11.565657130424222,20.890737547964324
11.569563127428756,21.1294369722435
11.57346912443329,21.239895863460443
11.577375121437823,21.227735648872567
11.581281118442357,21.100019617936056
11.58518711544689,20.8650099628788
11.589093112451424,20.531909662927177
11.592999109455958,20.110597586434018
11.596905106460492,19.611364943336213
11.600811103465025,19.0446607187016
11.604717100469559,18.42085299043504
11.608623097474092,17.750012120304188
11.612529094478626,17.04172075095998
11.61643509148316,16.304914387987502
11.620341088487693,15.547755140562867
11.624247085492227,14.77753998067491
11.62815308249676,14.00064369977402
11.632059079501294,13.22249562970844
11.635965076505828,12.447588183490385
11.639871073510362,11.679514386777095
11.643777070514895,10.921030832926666
11.647683067519429,10.174141916924619
11.651589064523963,9.4402007941846
11.655495061528496,8.72002227127189
11.65940105853303,8.014002763652119
11.663307055537564,7.322242542360184
11.667213052542097,6.644665724420906
11.67111904954663,5.981133824759989
11.675025046551164,5.331549161256596
11.678931043555698,4.695944968484861
11.682837040560232,4.0745597071759345
11.686743037564767,3.4678937324420747
11.6906490345693,2.8767471813362895
11.694555031573834,2.302238637093188
11.698461028578368,1.7458048023634651
11.702367025582902,1.2091820475099866
11.706273022587435,0.6943712752073105
11.710179019591969,0.20358804425575633
11.714085016596503,-0.2607996884245462
11.717991013601036,-0.6963435272278785
11.72189701060557,-1.1005933972454849
11.725803007610104,-1.4711800836677467
11.729709004614637,-1.8058985143859934
11.733615001619171,-2.1027888293567023
11.737520998623705,-2.3602124507892643
11.741426995628238,-2.576920619213041
11.745332992632772,-2.752113180356292
11.749238989637306,-2.885485783444732
11.75314498664184,-2.9772640689814875
11.757050983646373,-3.028223868824599
11.760956980650906,-3.0396968989306514
11.76486297765544,-3.013561881396274
11.768768974659974,-2.9522214741239723
11.772674971664507,-2.858565801377929
11.776580968669041,-2.7359237557973777
11.780486965673575,-2.5880035727118096
11.784392962678108,-2.4188244530751803
11.788298959682642,-2.232641225885282
11.792204956687176,-2.033864190205638
11.79611095369171,-1.826976358379909
11.800016950696243,-1.6164503352386408
11.803922947700777,-1.4066670145702975
11.80782894470531,-1.201838157356692
11.811734941709844,-1.0059347416335211
11.815640938714377,-0.8226227484233892
11.819546935718911,-0.6552077805570224
11.823452932723445,-0.5065896110577194
11.827358929727978,-0.3792274356470652
11.831264926732512,-0.27511627083546303
11.835170923737046,-0.19577460606094707
11.83907692074158,-0.14224309616649514
11.842982917746113,-0.11509377917813463
11.846888914750647,-0.11444903285930207
11.85079491175518,-0.140009249551575
11.854700908759714,-0.19108801844904819
11.858606905764248,-0.2666534619896245
11.862512902768781,-0.36537428093984103
11.866418899773315,-0.48566902163617015
11.870324896777849,-0.6257570875773684
11.874230893782382,-0.7837100732513782
11.878136890786916,-0.9575020961278127
11.88204288779145,-1.1450579369309681
11.885948884795983,-1.344297961034241
11.889854881800517,-1.5531789765211825
11.89376087880505,-1.7697303780886406
11.897666875809586,-1.992085121539359
11.90157287281412,-2.218505262811363
11.905478869818653,-2.447401971171305
11.909384866823187,-2.6773500826866306
11.91329086382772,-2.9070973933818385
11.917196860832254,-3.135568999318807
11.921102857836788,-3.3618670726256448
11.925008854841321,-3.585266519110355
11.928914851845855,-3.8052069966794217
11.932820848850389,-4.02128178754147
11.936726845854922,-4.233224015143456
11.940632842859456,-4.440890683545915
11.94453883986399,-4.6442449972852975
11.948444836868523,-4.8433373982798456
11.952350833873057,-5.038285737018179
11.95625683087759,-5.22925498128874
11.960162827882124,-5.4164368591575895
11.964068824886658,-5.600029834613851
11.967974821891191,-5.780219823755564
11.971880818895725,-5.957162074739882
11.975786815900259,-6.130964652922878
11.979692812904792,-6.301673989641708
11.983598809909326,-6.469262964284031
11.98750480691386,-6.633621989738616
11.991410803918393,-6.794553556254431
11.995316800922927,-6.951770653858548
11.99922279792746,-7.104899435299257
12.003128794931994,-7.253486397603051
12.007034791936528,-7.3970102497415136
12.010940788941062,-7.534898497098488
12.014846785945595,-7.666548612504992
12.018752782950129,-7.791353482240114
12.022658779954662,-7.908730618739334
12.026564776959196,-8.018154426321825
12.03047077396373,-8.119190599710153
12.034376770968263,-8.211531536021912
12.038282767972797,-8.2950314584442
12.04218876497733,-8.369739793473878
12.046094761981864,-8.435931222869364
12.050000758986398,-8.494130755286427
12.053906755990932,-8.545132139143005
12.057812752995465,-8.59000797469304
12.061718749999999,-8.630109985306712
12.065624747004533,-8.667058079503668
12.069530744009066,-8.702717078188277
12.0734367410136,-8.739160295170281
12.077342738018134,-8.778619540094423
12.081248735022667,-8.82342155512973
12.0851547320272,-8.875911390976345
12.089060729031734,-8.938363761733552
12.092966726036268,-9.01288397679747
12.096872723040802,-9.101300613320777
12.100778720045335,-9.205052644588374
12.10468471704987,-9.325074255837809
12.108590714054404,-9.461681036295486
12.112496711058938,-9.614461610722298
12.116402708063472,-9.78217904205228
12.120308705068005,-9.96268647648014
12.124214702072539,-10.152861493657412
12.128120699077073,-10.3485634510099
12.132026696081606,-10.544617760708588
12.13593269308614,-10.734830504386826
12.139838690090674,-10.912036075007466
12.143744687095207,-11.068179645741035
12.147650684099741,-11.194435219003978
12.151556681104275,-11.28135883023613
12.155462678108808,-11.31907520454444
12.159368675113342,-11.297494832275193
12.163274672117875,-11.206557091543704
12.16718066912241,-11.036493757232954
12.171086666126943,-10.77810605623614
12.174992663131476,-10.423047418280376
12.17889866013601,-9.964103289271256
12.182804657140544,-9.395458873236521
12.186710654145077,-8.712945494213152
12.190616651149611,-7.914256452979137
