589824
393216
327680
458752
458752
524288
524288
524288
524288
524288
524288
524288
589824
589824
393216
262144
196608
196608
196608
262144
393216
524288
589824
655360
720896
655360
589824
720896
720896
524288
262144
-131072
-1966080
-5308416
-7274496
-4784128
-262144
2097152
2097152
1441792
786432
458752
327680
262144
196608
131072
65536
0
-196608
-393216
-458752
-589824
-720896
-851968
-1048576
-1376256
-1769472
-2162688
-2424832
-2621440
-2752512
-2686976
-2359296
-1966080
-1441792
-983040
-589824
-262144
-65536
131072
262144
327680
393216
393216
327680
262144
393216
524288
524288
524288
458752
458752
524288
524288
524288
524288
589824
524288
393216
327680
327680
327680
393216
393216
327680
327680
393216
393216
458752
458752
327680
262144
196608
131072
196608
327680
458752
524288
524288
589824
655360
589824
458752
524288
589824
720896
720896
458752
-983040
-4390912
-7733248
-6684672
-2097152
1441792
2097152
1572864
1114112
786432
720896
655360
524288
327680
393216
393216
196608
0
0
-131072
-262144
-393216
-720896
-983040
-1310720
-1703936
-2031616
-2228224
-2228224
-2162688
-1966080
-1703936
-1245184
-720896
-393216
-262144
-196608
65536
327680
393216
458752
458752
458752
524288
524288
524288
524288
458752
458752
524288
524288
458752
524288
589824
589824
524288
458752
524288
524288
458752
393216
458752
458752
393216
458752
458752
524288
589824
655360
786432
720896
589824
458752
393216
458752
327680
262144
327680
524288
589824
655360
786432
851968
786432
720896
720896
786432
786432
720896
393216
-1310720
-4980736
-8060928
-6553600
-1769472
1507328
2097152
1638400
1245184
917504
786432
589824
524288
589824
524288
393216
131072
65536
0
-65536
-327680
-393216
-458752
-720896
-1114112
-1441792
-1769472
-2228224
-2490368
-2359296
-2031616
-1441792
-1048576
-720896
-327680
262144
720896
720896
458752
393216
458752
655360
851968
1048576
1310720
1507328
1507328
1179648
917504
655360
655360
851968
1048576
1114112
1179648
1048576
1048576
1048576
1048576
917504
851968
917504
1048576
917504
720896
786432
786432
655360
786432
983040
851968
524288
458752
393216
262144
262144
458752
655360
458752
196608
327680
720896
786432
720896
655360
589824
655360
917504
589824
-786432
-3604480
-7340032
-8126464
-4128768
458752
1703936
983040
786432
786432
655360
131072
-327680
-131072
393216
458752
65536
-65536
-65536
-393216
-786432
-1310720
-1572864
-1572864
-1376256
-1638400
-2424832
-2883584
-3014656
-3014656
-2949120
-2752512
-2097152
-1441792
-1179648
-1048576
-589824
-262144
65536
589824
655360
327680
262144
524288
589824
589824
524288
327680
327680
720896
917504
917504
1114112
1376256
1179648
786432
393216
327680
589824
983040
1179648
1245184
1179648
917504
720896
655360
262144
262144
655360
983040
786432
917504
1048576
589824
458752
851968
1048576
917504
917504
851968
1114112
1245184
851968
262144
-196608
-1703936
-4653056
-6684672
-4128768
917504
3604480
2883584
1703936
983040
786432
655360
655360
851968
589824
-65536
-393216
-262144
-393216
-720896
-786432
-720896
-655360
-1114112
-1835008
-2752512
-3276800
-3473408
-3473408
-3538944
-3342336
-2752512
-2228224
-1966080
-1703936
-1179648
-655360
-196608
196608
458752
458752
655360
589824
458752
458752
655360
655360
524288
458752
524288
524288
524288
458752
393216
393216
393216
458752
458752
393216
327680
262144
458752
524288
327680
131072
196608
196608
262144
262144
196608
196608
196608
262144
327680
524288
655360
720896
655360
589824
655360
720896
786432
720896
262144
-1310720
-4521984
-7143424
-5505024
-720896
2424832
2752512
2097152
1441792
983040
720896
589824
458752
262144
262144
131072
0
0
196608
65536
-393216
-786432
-1114112
-1376256
-1572864
-2031616
-2359296
-2555904
-2621440
-2555904
-2228224
-1769472
-1179648
-655360
-327680
0
327680
786432
1048576
983040
851968
786432
786432
917504
1114112
1114112
917504
983040
1310720
1441792
1376256
1179648
983040
786432
786432
851968
983040
983040
851968
983040
1114112
983040
917504
917504
851968
655360
458752
524288
983040
1114112
851968
589824
786432
786432
720896
786432
1179648
1245184
1114112
983040
917504
720896
0
-2424832
-6029312
-7143424
-3866624
327680
1966080
1966080
1769472
1376256
1048576
1114112
1179648
655360
131072
0
131072
196608
131072
0
-131072
-196608
-524288
-851968
-1114112
-1441792
-1966080
-2359296
-2621440
-2555904
-2293760
-1966080
-1507328
-917504
-327680
-65536
65536
131072
65536
131072
458752
589824
589824
655360
655360
589824
655360
655360
655360
589824
524288
458752
458752
655360
786432
655360
458752
589824
720896
655360
327680
196608
327680
524288
655360
524288
131072
0
131072
458752
786432
786432
655360
720896
786432
786432
786432
786432
786432
720896
655360
65536
-1835008
-5505024
-7929856
-5308416
-393216
2293760
2293760
1638400
1114112
720896
589824
589824
458752
196608
0
0
0
0
-65536
-262144
-458752
-786432
-1114112
-1376256
-1572864
-2031616
-2424832
-2686976
-2686976
-2555904
-2228224
-1835008
-1441792
-917504
-393216
-65536
65536
262144
327680
327680
327680
458752
524288
524288
655360
655360
655360
589824
524288
524288
589824
720896
720896
589824
524288
524288
589824
524288
589824
589824
589824
655360
720896
786432
655360
524288
393216
262144
393216
655360
786432
917504
983040
1048576
983040
983040
1048576
1114112
1048576
1179648
1245184
851968
-589824
-3735552
-7405568
-7274496
-2818048
1376256
2555904
2228224
1703936
1245184
1179648
1114112
786432
393216
458752
589824
589824
458752
262144
196608
65536
-65536
-262144
-393216
-851968
-1441792
-1900544
-2031616
-2031616
-1966080
-1703936
-1376256
-917504
-458752
0
262144
589824
851968
983040
983040
1048576
1114112
1114112
1179648
1310720
1376256
1310720
1310720
1376256
1441792
1376256
1310720
1245184
1310720
1376256
1376256
1310720
1310720
1310720
1310720
1376256
1441792
1507328
1441792
1376256
1376256
1376256
1310720
1179648
1114112
1114112
1048576
1114112
1310720
1507328
1507328
1441792
1507328
1376256
1245184
1310720
1441792
1507328
1572864
1376256
327680
-2621440
-6684672
-7536640
-3473408
1245184
2949120
2686976
2031616
1572864
1310720
1114112
917504
851968
786432
720896
589824
524288
393216
262144
0
-131072
-458752
-655360
-1048576
-1376256
-1703936
-1966080
-2162688
-2162688
-2097152
-1769472
-1376256
-917504
-524288
-196608
0
196608
393216
524288
524288
458752
458752
393216
393216
327680
393216
327680
262144
327680
393216
393216
327680
327680
262144
262144
327680
327680
327680
262144
196608
196608
196608
262144
262144
196608
131072
196608
196608
262144
196608
196608
65536
0
-65536
0
0
65536
262144
327680
458752
458752
393216
393216
393216
393216
327680
131072
-1048576
-4390912
-8454144
-8257536
-3604480
851968
2097152
1769472
1114112
524288
327680
327680
262144
131072
65536
0
-65536
-131072
-196608
-262144
-458752
-720896
-983040
-1245184
-1507328
-1835008
-2162688
-2490368
-2686976
-2621440
-2359296
-2031616
-1703936
-1310720
-917504
-524288
-262144
0
65536
131072
131072
196608
262144
262144
196608
196608
262144
262144
327680
393216
327680
262144
262144
327680
393216
393216
393216
393216
393216
327680
196608
196608
262144
262144
262144
327680
327680
327680
262144
393216
393216
196608
65536
0
0
131072
262144
262144
196608
262144
327680
327680
327680
327680
393216
458752
458752
327680
-458752
-3211264
-7077888
-7995392
-4259840
393216
2097152
1638400
983040
458752
262144
262144
262144
196608
131072
0
-65536
-131072
-196608
-262144
-458752
-720896
-917504
-1245184
-1638400
-2031616
-2424832
-2686976
-2818048
-2818048
-2752512
-2490368
-2031616
-1507328
-983040
-524288
-131072
65536
262144
393216
458752
524288
524288
524288
589824
655360
655360
655360
720896
720896
786432
786432
786432
851968
786432
655360
458752
458752
524288
524288
458752
458752
524288
589824
589824
589824
524288
393216
262144
262144
327680
458752
589824
655360
655360
786432
851968
786432
720896
655360
720896
720896
589824
131072
-1703936
-5111808
-6946816
-4390912
0
2162688
2162688
1572864
1048576
720896
655360
589824
524288
458752
327680
196608
131072
65536
0
-65536
-327680
-589824
-851968
-1179648
-1507328
-1835008
-2031616
-2162688
-2097152
-1966080
-1835008
-1507328
-1048576
-589824
-196608
65536
327680
524288
655360
720896
786432
786432
851968
851968
851968
851968
851968
917504
917504
851968
851968
851968
851968
786432
786432
720896
655360
589824
589824
589824
655360
655360
655360
720896
786432
786432
720896
589824
524288
524288
589824
655360
720896
720896
786432
851968
917504
917504
983040
983040
983040
983040
983040
720896
-458752
-3538944
-6946816
-6553600
-2228224
1572864
2490368
2031616
1507328
1114112
983040
851968
720896
655360
589824
524288
458752
327680
327680
131072
-65536
-262144
-458752
-720896
-1114112
-1441792
-1769472
-1900544
-2031616
-2031616
-1900544
-1572864
-1114112
-589824
-196608
65536
327680
524288
655360
655360
720896
720896
786432
786432
851968
917504
983040
983040
917504
917504
983040
983040
983040
851968
786432
720896
786432
851968
786432
720896
720896
720896
720896
720896
786432
917504
851968
720896
524288
458752
458752
524288
655360
720896
720896
786432
786432
786432
851968
851968
917504
851968
851968
917504
589824
-917504
-4390912
-7798784
-6815744
-2162688
1441792
2097152
1703936
1310720
983040
851968
655360
589824
458752
393216
327680
327680
262144
65536
-65536
-327680
-458752
-720896
-1048576
-1376256
-1638400
-1966080
-2162688
-2293760
-2228224
-2031616
-1638400
-1179648
-720896
-327680
-65536
196608
524288
655360
655360
655360
720896
851968
786432
786432
851968
851968
851968
917504
917504
851968
851968
786432
786432
786432
786432
720896
720896
655360
655360
589824
589824
589824
655360
720896
786432
720896
655360
655360
655360
589824
524288
393216
327680
393216
458752
589824
720896
720896
655360
720896
786432
786432
720896
720896
720896
720896
786432
0
-2752512
-6815744
-7929856
-4259840
327680
2097152
1835008
1310720
1048576
851968
720896
524288
393216
327680
196608
131072
65536
0
-65536
-327680
-458752
-720896
-1048576
-1376256
-1703936
-2031616
-2293760
-2424832
-2490368
-2490368
-2293760
-1966080
-1507328
-1048576
-655360
-393216
-131072
0
131072
196608
327680
393216
393216
524288
524288
393216
327680
393216
458752
458752
458752
524288
589824
589824
524288
393216
393216
458752
589824
589824
524288
524288
589824
655360
655360
589824
589824
655360
720896
786432
786432
655360
458752
393216
458752
524288
589824
655360
655360
720896
720896
720896
720896
786432
851968
786432
786432
655360
262144
-1114112
-4259840
-6881280
-5242880
-655360
2359296
2555904
1966080
1376256
851968
589824
458752
327680
262144
196608
131072
65536
0
-196608
-458752
-720896
-917504
-1245184
-1507328
-1769472
-2031616
-2424832
-2818048
-2949120
-2949120
-2818048
-2424832
-1900544
-1310720
-786432
-393216
-131072
0
196608
327680
393216
393216
393216
458752
524288
589824
589824
589824
589824
589824
655360
655360
589824
524288
393216
393216
393216
393216
458752
458752
393216
393216
524288
524288
393216
393216
393216
458752
393216
262144
196608
131072
196608
327680
524288
589824
524288
524288
524288
589824
589824
589824
589824
589824
589824
327680
-917504
-3866624
-6881280
-6094848
-1966080
1376256
2097152
1638400
1179648
786432
524288
327680
262144
262144
196608
65536
0
-65536
-131072
-262144
-458752
-655360
-917504
-1245184
-1572864
-1835008
-2031616
-2293760
-2424832
-2490368
-2293760
-1900544
-1507328
-1048576
-589824
-196608
0
262144
458752
393216
393216
393216
458752
524288
524288
655360
655360
655360
655360
655360
655360
720896
720896
720896
524288
458752
458752
524288
589824
458752
393216
458752
524288
524288
589824
589824
589824
589824
589824
655360
589824
458752
327680
262144
262144
393216
589824
655360
655360
720896
720896
655360
655360
720896
720896
720896
655360
262144
-1245184
-4521984
-7274496
-5832704
-1376256
1507328
1900544
1507328
1048576
786432
655360
589824
393216
262144
196608
131072
65536
0
0
-131072
-262144
-393216
-655360
-983040
-1310720
-1638400
-1900544
-2097152
-2228224
-2162688
-2031616
-1703936
-1310720
-851968
-393216
-131072
65536
262144
458752
524288
524288
524288
524288
589824
589824
589824
655360
655360
720896
720896
720896
720896
851968
851968
720896
720896
655360
524288
458752
524288
524288
524288
589824
589824
589824
589824
589824
655360
720896
720896
786432
786432
786432
720896
589824
458752
393216
458752
589824
655360
720896
786432
851968
786432
786432
786432
851968
851968
851968
786432
458752
-917504
-4128768
-7208960
-6160384
-1835008
1441792
2097152
1703936
1245184
851968
720896
589824
524288
393216
327680
196608
131072
131072
65536
0
-196608
-393216
-589824
-851968
-1179648
-1507328
-1703936
-1966080
-2097152
-2097152
-1966080
-1769472
-1376256
-851968
-458752
-65536
196608
458752
589824
655360
655360
720896
720896
655360
655360
720896
786432
851968
917504
917504
851968
786432
786432
851968
851968
851968
786432
720896
655360
589824
524288
589824
655360
655360
655360
720896
720896
589824
589824
655360
655360
655360
720896
720896
786432
851968
851968
720896
589824
393216
327680
393216
524288
655360
720896
786432
786432
786432
786432
786432
720896
655360
655360
589824
196608
-1507328
-4980736
-7733248
-5963776
-1245184
1703936
2162688
1703936
1245184
786432
589824
458752
458752
327680
196608
131072
0
-65536
-131072
-262144
-393216
-524288
-786432
-1114112
-1441792
-1769472
-2097152
-2490368
-2686976
-2686976
-2424832
-2031616
-1572864
-1114112
-720896
-327680
0
196608
262144
393216
458752
458752
524288
524288
589824
655360
720896
655360
655360
655360
720896
786432
720896
655360
720896
720896
589824
524288
524288
524288
524288
589824
524288
393216
524288
524288
589824
589824
589824
589824
655360
720896
720896
720896
655360
589824
458752
393216
327680
393216
589824
720896
655360
589824
589824
655360
655360
720896
851968
983040
917504
655360
65536
-1835008
-5505024
-7864320
-5570560
-851968
1835008
2031616
1507328
1048576
786432
589824
458752
327680
262144
262144
327680
262144
65536
-65536
-131072
-262144
-589824
-851968
-1114112
-1441792
-1769472
-2097152
-2293760
-2359296
-2359296
-2162688
-1835008
-1441792
-917504
-393216
-65536
131072
393216
524288
589824
655360
720896
720896
720896
655360
720896
786432
851968
851968
917504
851968
786432
720896
786432
720896
655360
589824
524288
524288
524288
589824
589824
589824
524288
589824
655360
720896
786432
786432
786432
720896
720896
786432
786432
851968
786432
655360
589824
655360
589824
655360
851968
917504
851968
786432
851968
917504
917504
983040
983040
983040
983040
917504
196608
-1900544
-5308416
-6553600
-3342336
917504
2686976
2424832
1835008
1245184
851968
720896
655360
589824
524288
393216
327680
196608
65536
0
-131072
-393216
-655360
-983040
-1376256
-1769472
-2097152
-2424832
-2621440
-2686976
-2686976
-2490368
-2097152
-1572864
-983040
-524288
-131072
131072
327680
393216
393216
524288
589824
589824
655360
720896
655360
589824
589824
655360
720896
786432
786432
720896
524288
393216
458752
458752
393216
458752
458752
458752
458752
458752
458752
524288
524288
589824
655360
655360
393216
196608
131072
131072
262144
393216
458752
589824
655360
655360
655360
720896
720896
655360
655360
655360
655360
262144
-1179648
-4063232
-6225920
-4521984
-262144
2293760
2293760
1638400
1048576
589824
393216
262144
262144
327680
196608
0
-65536
-262144
-458752
-655360
-720896
-917504
-1179648
-1507328
-1769472
-2162688
-2555904
-2818048
-2883584
-2883584
-2818048
-2359296
-1703936
-1179648
-786432
-327680
0
262144
327680
131072
0
131072
393216
393216
393216
720896
917504
655360
589824
655360
786432
720896
458752
262144
196608
327680
589824
589824
458752
458752
458752
327680
196608
524288
589824
458752
524288
786432
786432
589824
458752
393216
327680
327680
524288
655360
655360
655360
655360
524288
589824
720896
720896
720896
720896
524288
720896
917504
-458752
-3801088
-6225920
-4390912
-196608
2424832
2621440
2031616
1376256
851968
655360
589824
589824
524288
393216
0
-65536
0
0
-196608
-393216
-458752
-720896
-1114112
-1703936
-2228224
-2621440
-2686976
-2686976
-2621440
-2555904
-2228224
-1703936
-1048576
-655360
-458752
0
458752
786432
720896
589824
524288
524288
655360
655360
655360
786432
917504
983040
1048576
983040
851968
720896
786432
917504
851968
720896
655360
720896
786432
720896
589824
393216
655360
1048576
983040
786432
786432
786432
393216
327680
589824
851968
917504
851968
786432
786432
655360
524288
589824
720896
917504
917504
786432
262144
-1441792
-4653056
-6684672
-4390912
0
2162688
2228224
1638400
917504
393216
131072
0
0
0
0
-262144
-524288
-589824
-655360
-917504
-1245184
-1507328
-1769472
-2031616
-2359296
-2818048
-3080192
-3145728
-3080192
-3145728
-3145728
-2883584
-2293760
-1703936
-1245184
-720896
-262144
-65536
-65536
-65536
0
0
65536
65536
131072
262144
458752
262144
0
-65536
0
0
-65536
0
-65536
0
65536
196608
0
-196608
-262144
-131072
0
0
0
0
0
0
0
-65536
-262144
-196608
0
65536
131072
393216
458752
327680
262144
262144
0
65536
589824
1048576
917504
458752
-851968
-3801088
-6291456
-4849664
-720896
1966080
2293760
1900544
1376256
917504
917504
1114112
1179648
1114112
1114112
1179648
983040
720896
589824
524288
393216
196608
0
-196608
-458752
-786432
-1114112
-1310720
-1441792
-1572864
-1441792
-1114112
-655360
-131072
131072
393216
655360
851968
983040
1114112
1245184
1310720
1310720
1310720
1376256
1376256
1310720
1245184
1114112
1048576
1179648
1114112
1048576
1114112
1179648
1179648
1114112
983040
983040
917504
851968
720896
720896
720896
851968
983040
1048576
983040
851968
786432
655360
589824
524288
524288
720896
786432
786432
655360
655360
720896
720896
720896
720896
655360
655360
720896
720896
262144
-1507328
-4849664
-6946816
-4915200
-720896
1638400
1966080
1507328
1114112
786432
655360
458752
458752
393216
393216
393216
393216
327680
65536
-65536
-262144
-458752
-786432
-983040
-1245184
-1638400
-1835008
-1900544
-1900544
-1966080
-1835008
-1507328
-1114112
-655360
-131072
196608
393216
524288
524288
589824
720896
851968
983040
1114112
1048576
917504
917504
917504
851968
851968
786432
851968
1048576
1048576
983040
983040
983040
983040
851968
917504
917504
851968
655360
589824
655360
786432
786432
786432
786432
786432
851968
851968
851968
917504
851968
655360
524288
458752
524288
524288
655360
655360
655360
786432
851968
851968
786432
851968
786432
655360
655360
458752
-589824
-3604480
-7012352
-6684672
-2490368
1114112
2031616
1572864
1114112
720896
589824
393216
196608
196608
131072
131072
0
-65536
-196608
-262144
-393216
-524288
-917504
-1310720
-1572864
-1835008
-2097152
-2424832
-2752512
-2752512
-2555904
-2293760
-1966080
-1572864
-1179648
-786432
-393216
0
196608
196608
131072
65536
65536
65536
131072
196608
196608
65536
131072
262144
262144
327680
393216
458752
393216
327680
393216
393216
262144
196608
262144
393216
458752
327680
196608
196608
262144
327680
327680
458752
458752
524288
655360
655360
524288
458752
524288
524288
458752
393216
262144
262144
393216
524288
589824
589824
720896
786432
720896
655360
589824
655360
655360
589824
458752
-262144
-2621440
-6160384
-7274496
-3997696
196608
1900544
1703936
1245184
851968
655360
589824
524288
262144
65536
0
0
-65536
-196608
-262144
-327680
-524288
-655360
-851968
-1310720
-1835008
-2097152
-2293760
-2424832
-2490368
-2424832
-2228224
-1966080
-1638400
-1114112
-589824
-327680
-131072
65536
262144
393216
393216
393216
393216
393216
458752
458752
393216
458752
393216
393216
458752
524288
524288
524288
524288
524288
458752
458752
458752
458752
393216
262144
327680
393216
327680
327680
393216
393216
393216
393216
393216
458752
524288
524288
458752
393216
458752
393216
327680
327680
393216
327680
262144
262144
262144
262144
327680
393216
458752
524288
589824
589824
589824
524288
524288
524288
458752
196608
-917504
-3866624
-7077888
-6619136
-2490368
1114112
1966080
1572864
1048576
720896
589824
524288
458752
327680
196608
131072
65536
65536
0
-131072
-393216
-589824
-851968
-1048576
-1310720
-1507328
-1900544
-2293760
-2555904
-2621440
-2555904
-2228224
-1835008
-1376256
-917504
-458752
0
196608
327680
393216
458752
458752
458752
458752
524288
524288
524288
655360
720896
655360
524288
524288
524288
524288
589824
589824
655360
655360
655360
589824
589824
655360
589824
524288
589824
655360
655360
655360
589824
589824
655360
655360
655360
720896
720896
720896
720896
786432
851968
983040
917504
851968
786432
655360
393216
393216
524288
655360
655360
655360
720896
786432
786432
786432
917504
851968
786432
786432
720896
65536
-2228224
-6029312
-7536640
-4456448
0
2031616
1966080
1441792
1048576
786432
655360
524288
458752
327680
196608
65536
65536
65536
0
-196608
-393216
-589824
-786432
-1048576
-1376256
-1769472
-2097152
-2228224
-2424832
-2555904
-2424832
-2097152
-1507328
-983040
-655360
-458752
-131072
131072
327680
458752
589824
589824
458752
393216
458752
458752
524288
589824
655360
720896
720896
655360
655360
655360
589824
524288
458752
458752
458752
458752
524288
589824
589824
524288
524288
589824
655360
589824
524288
524288
589824
655360
589824
589824
655360
655360
655360
720896
655360
589824
458752
393216
393216
393216
458752
524288
655360
720896
720896
720896
720896
720896
720896
720896
786432
786432
131072
-2162688
-5898240
-7667712
-4784128
-131072
2031616
2031616
1572864
1179648
851968
655360
589824
458752
327680
262144
196608
131072
0
0
-196608
-458752
-786432
-983040
-1310720
-1769472
-2228224
-2555904
-2752512
-2883584
-2883584
-2752512
-2424832
-1966080
-1376256
-786432
-327680
0
327680
458752
524288
458752
524288
524288
589824
655360
720896
720896
720896
720896
851968
851968
655360
589824
589824
655360
589824
589824
589824
589824
589824
655360
589824
524288
524288
589824
655360
655360
589824
589824
589824
524288
458752
458752
393216
393216
458752
589824
655360
786432
720896
720896
786432
851968
851968
786432
720896
720896
655360
131072
-1572864
-4849664
-6750208
-4325376
131072
2424832
2424832
1703936
1048576
720896
589824
524288
393216
327680
262144
131072
65536
0
-65536
-262144
-393216
-524288
-720896
-1114112
-1507328
-1900544
-2293760
-2555904
-2621440
-2490368
-2293760
-2031616
-1441792
-917504
-458752
-131072
65536
262144
327680
458752
589824
589824
655360
655360
720896
786432
851968
851968
720896
720896
786432
720896
589824
589824
655360
720896
655360
589824
524288
589824
655360
589824
524288
589824
589824
655360
655360
655360
655360
720896
720896
786432
786432
786432
655360
589824
458752
458752
524288
589824
655360
720896
786432
720896
720896
720896
720896
720896
786432
786432
655360
-65536
-2490368
-5963776
-6881280
-3538944
589824
2162688
1900544
1376256
917504
720896
589824
524288
458752
393216
327680
196608
131072
0
-131072
-262144
-393216
-589824
-917504
-1179648
-1572864
-1900544
-2162688
-2359296
-2490368
-2424832
-2162688
-1835008
-1441792
-1048576
-524288
-131072
65536
196608
327680
458752
458752
524288
524288
524288
524288
524288
524288
589824
655360
720896
720896
655360
589824
524288
589824
655360
589824
458752
458752
458752
524288
655360
655360
589824
524288
589824
589824
589824
589824
655360
720896
720896
786432
655360
524288
458752
327680
327680
458752
589824
655360
786432
786432
786432
720896
786432
851968
786432
655360
720896
589824
-327680
-3080192
-6619136
-7077888
-3276800
917504
2293760
1900544
1245184
786432
655360
524288
458752
393216
393216
327680
131072
65536
0
0
-196608
-524288
-786432
-983040
-1245184
-1507328
-1966080
-2293760
-2490368
-2555904
-2490368
-2228224
-1835008
-1310720
-786432
-393216
0
196608
327680
458752
589824
524288
458752
524288
524288
524288
589824
589824
589824
589824
589824
589824
655360
655360
720896
655360
589824
589824
589824
524288
458752
524288
524288
524288
524288
524288
589824
524288
524288
589824
524288
458752
524288
589824
655360
720896
655360
655360
589824
393216
196608
196608
327680
458752
524288
589824
655360
655360
655360
720896
786432
786432
720896
655360
393216
-720896
-3670016
-7274496
-7274496
-3145728
851968
2031616
1769472
1179648
720896
524288
458752
327680
327680
327680
196608
65536
0
-65536
-262144
-393216
-524288
-786432
-1048576
-1376256
-1703936
-2097152
-2424832
-2686976
-2752512
-2686976
-2490368
-2097152
-1507328
-917504
-458752
-131072
131072
262144
458752
589824
720896
655360
655360
589824
524288
524288
589824
655360
655360
720896
786432
786432
851968
786432
720896
720896
720896
720896
655360
655360
720896
720896
720896
720896
786432
786432
786432
720896
786432
786432
655360
589824
524288
524288
655360
720896
786432
786432
851968
917504
917504
917504
917504
917504
917504
851968
786432
393216
-1114112
-4194304
-6160384
-3997696
262144
2686976
2621440
1966080
1441792
983040
655360
458752
393216
327680
262144
131072
0
-65536
-131072
-196608
-393216
-655360
-851968
-1179648
-1638400
-2097152
-2424832
-2621440
-2752512
-2686976
-2424832
-2097152
-1638400
-1048576
-589824
-196608
131072
393216
524288
524288
655360
720896
655360
655360
720896
655360
655360
655360
720896
786432
786432
720896
720896
655360
589824
524288
524288
589824
589824
589824
655360
655360
720896
720896
720896
655360
589824
589824
589824
655360
589824
458752
393216
327680
393216
589824
655360
720896
720896
786432
786432
786432
786432
851968
786432
720896
655360
458752
-655360
-3407872
-6488064
-6094848
-2097152
1441792
2162688
1638400
1114112
720896
524288
393216
327680
196608
65536
0
-65536
-131072
-262144
-327680
-524288
-655360
-851968
-1114112
-1572864
-1966080
-2359296
-2686976
-2818048
-2752512
-2621440
-2359296
-1966080
-1507328
-1048576
-589824
-262144
-65536
0
65536
65536
262144
327680
196608
196608
262144
393216
458752
393216
458752
786432
1179648
1179648
917504
720896
589824
589824
655360
720896
720896
655360
720896
851968
786432
524288
524288
786432
917504
786432
655360
655360
589824
393216
327680
589824
720896
589824
458752
524288
720896
851968
851968
917504
917504
983040
917504
851968
393216
-1835008
-5898240
-8126464
-5373952
-393216
2097152
2162688
1572864
1048576
851968
851968
851968
786432
589824
458752
393216
393216
262144
131072
0
0
0
-589824
-1507328
-1769472
-1441792
-1441792
-1769472
-2228224
-2686976
-2555904
-2031616
-1507328
-917504
-458752
0
262144
458752
589824
655360
589824
655360
655360
720896
851968
983040
1048576
1114112
524288
-65536
196608
851968
720896
458752
458752
458752
524288
589824
524288
524288
524288
524288
524288
524288
589824
589824
655360
655360
655360
720896
1048576
589824
-196608
-327680
196608
458752
589824
720896
851968
786432
720896
720896
655360
720896
786432
851968
851968
-262144
-3276800
-6881280
-6946816
-3014656
786432
2097152
2097152
1376256
589824
327680
524288
589824
458752
393216
327680
458752
262144
0
-131072
-196608
-262144
-589824
-851968
-1179648
-1376256
-1572864
-1703936
-2031616
-2359296
-2490368
-2359296
-1900544
-1310720
-786432
-393216
0
196608
327680
458752
524288
524288
589824
524288
458752
458752
589824
720896
786432
720896
655360
655360
720896
655360
589824
589824
655360
720896
786432
786432
720896
589824
589824
589824
720896
720896
720896
720896
720896
655360
458752
393216
458752
524288
655360
720896
786432
851968
851968
851968
851968
917504
983040
917504
1048576
1179648
720896
-1245184
-4980736
-7667712
-5832704
-1048576
1769472
2097152
1638400
1245184
1048576
1048576
917504
786432
655360
589824
458752
458752
393216
262144
65536
-65536
-196608
-327680
-524288
-851968
-1245184
-1572864
-1769472
-1900544
-1900544
-1835008
-1638400
-1310720
-917504
-524288
-131072
131072
327680
393216
393216
458752
458752
393216
458752
524288
524288
458752
458752
524288
524288
458752
393216
458752
458752
458752
393216
262144
196608
327680
327680
327680
262144
262144
327680
393216
393216
327680
196608
65536
0
0
0
65536
131072
196608
262144
262144
262144
262144
262144
196608
262144
327680
327680
-65536
-1966080
-5439488
-7864320
-5505024
-655360
2097152
2162688
1572864
851968
196608
-65536
65536
458752
262144
0
-131072
0
0
0
-131072
-393216
-393216
-655360
-655360
-851968
-1310720
-1900544
-2162688
-2228224
-2293760
-2162688
-1703936
-1179648
-524288
0
327680
720896
983040
1114112
1179648
1179648
1179648
1179648
1245184
1310720
1310720
1310720
1310720
1310720
1310720
1179648
1114112
1048576
983040
983040
1048576
917504
786432
786432
851968
851968
851968
851968
786432
786432
720896
524288
393216
327680
393216
458752
655360
851968
851968
786432
720896
655360
720896
786432
786432
851968
851968
851968
458752
-1114112
-4259840
-6750208
-4915200
-262144
2621440
2686976
2031616
1376256
917504
720896
655360
524288
458752
393216
393216
393216
131072
-65536
-262144
-393216
-589824
-851968
-1114112
-1441792
-1835008
-2228224
-2490368
-2621440
-2621440
-2490368
-2162688
-1703936
-1114112
-458752
-131072
0
65536
196608
393216
458752
524288
524288
524288
589824
655360
720896
720896
720896
786432
720896
720896
655360
655360
720896
786432
720896
655360
589824
589824
655360
589824
589824
589824
655360
720896
720896
589824
524288
458752
524288
655360
720896
655360
655360
720896
786432
851968
917504
917504
917504
983040
983040
786432
-393216
-3473408
-7274496
-7471104
-3276800
983040
2228224
1900544
1376256
983040
851968
851968
786432
655360
393216
327680
327680
327680
262144
196608
65536
-65536
-327680
-589824
-917504
-1310720
-1572864
-1769472
-1966080
-2031616
-1900544
-1572864
-1245184
-851968
-524288
-65536
196608
458752
655360
720896
589824
393216
393216
393216
458752
524288
524288
458752
458752
458752
524288
524288
524288
524288
524288
589824
589824
589824
655360
655360
524288
393216
393216
327680
327680
458752
458752
458752
458752
393216
262144
131072
196608
327680
458752
589824
655360
720896
655360
655360
589824
589824
720896
786432
589824
262144
-1179648
-4718592
-8257536
-7405568
-2686976
1048576
1835008
1441792
1114112
720896
524288
393216
393216
262144
196608
131072
65536
0
-65536
-131072
-262144
-393216
-655360
-917504
-1245184
-1572864
-1900544
-2162688
-2490368
-2490368
-2293760
-2031616
-1638400
-1114112
-720896
-327680
0
196608
327680
393216
393216
458752
524288
524288
524288
524288
524288
589824
589824
589824
589824
655360
655360
720896
720896
655360
655360
720896
720896
655360
589824
589824
589824
589824
589824
589824
655360
720896
786432
720896
720896
655360
524288
393216
262144
327680
458752
524288
589824
655360
720896
786432
720896
720896
786432
786432
720896
786432
786432
262144
-1769472
-5570560
-8388608
-6488064
-1638400
1507328
1900544
1507328
1048576
786432
720896
589824
458752
458752
393216
327680
262144
196608
131072
0
-196608
-393216
-589824
-851968
-1245184
-1572864
-1835008
-2097152
-2228224
-2228224
-2162688
-1966080
-1572864
-983040
-524288
-196608
0
196608
327680
393216
458752
524288
655360
655360
524288
458752
393216
458752
589824
589824
524288
524288
589824
655360
720896
655360
655360
589824
655360
655360
589824
589824
524288
589824
524288
524288
589824
655360
655360
524288
458752
524288
589824
720896
917504
983040
917504
720896
458752
327680
327680
393216
458752
589824
589824
524288
655360
851968
983040
917504
851968
786432
851968
786432
0
-2686976
-6815744
-8454144
-5242880
-524288
1638400
1638400
1245184
983040
720896
524288
458752
524288
589824
524288
196608
0
0
0
-196608
-327680
-524288
-786432
-1048576
-1376256
-1638400
-1835008
-2097152
-2359296
-2359296
-2228224
-1966080
-1572864
-1048576
-589824
-262144
0
131072
262144
393216
458752
458752
458752
458752
458752
458752
524288
524288
524288
524288
524288
458752
458752
458752
524288
524288
524288
524288
458752
458752
393216
327680
262144
262144
327680
262144
262144
327680
393216
393216
458752
458752
458752
393216
393216
458752
589824
589824
393216
262144
196608
262144
327680
458752
589824
655360
655360
720896
720896
720896
720896
786432
851968
786432
720896
393216
-1048576
-4259840
-6946816
-5177344
-524288
2424832
2621440
1966080
1376256
917504
720896
589824
458752
393216
393216
262144
65536
-65536
-131072
-327680
-393216
-524288
-720896
-1114112
-1572864
-1966080
-2359296
-2621440
-2818048
-2883584
-2752512
-2424832
-1966080
-1376256
-786432
-327680
0
196608
327680
327680
393216
458752
524288
589824
589824
589824
655360
720896
786432
786432
786432
720896
720896
720896
655360
589824
524288
458752
393216
393216
393216
393216
458752
524288
589824
524288
393216
393216
458752
458752
393216
262144
196608
131072
131072
262144
458752
524288
524288
589824
589824
458752
393216
458752
393216
327680
393216
327680
-131072
-2162688
-5505024
-6881280
-4063232
65536
1966080
1769472
1245184
786432
458752
262144
196608
131072
131072
0
-196608
-393216
-589824
-720896
-786432
-851968
-1114112
-1376256
-1638400
-2031616
-2424832
-2752512
-3080192
-3276800
-3211264
-2949120
-2686976
-2293760
-1572864
-1310720
-1048576
-720896
-655360
-720896
-131072
589824
65536
0
524288
720896
983040
1179648
1310720
1179648
983040
1048576
786432
720896
655360
983040
589824
327680
655360
1048576
1114112
1310720
1245184
1310720
1179648
1114112
1114112
1310720
1245184
983040
786432
589824
720896
720896
589824
655360
851968
1114112
1048576
851968
786432
851968
786432
786432
851968
1245184
1245184
1310720
131072
-3080192
-7143424
-7929856
-3997696
524288
2097152
1769472
1310720
983040
720896
655360
589824
720896
589824
458752
786432
786432
458752
131072
-131072
-262144
-196608
-262144
-655360
-917504
-1310720
-1703936
-1900544
-1966080
-1900544
-1835008
-1507328
-1048576
-589824
-262144
0
327680
655360
655360
393216
393216
393216
524288
786432
1441792
1835008
1114112
655360
262144
524288
720896
786432
720896
786432
917504
983040
917504
786432
786432
983040
917504
983040
983040
720896
131072
327680
786432
720896
327680
393216
589824
720896
786432
851968
1048576
1179648
1179648
983040
983040
983040
917504
786432
720896
0
-2359296
-5963776
-6946816
-3604480
262144
1900544
1835008
1572864
1376256
917504
458752
327680
458752
720896
917504
851968
589824
393216
262144
131072
0
-131072
-327680
-589824
-851968
-1179648
-1376256
-1703936
-2097152
-2359296
-2097152
-1376256
-720896
-327680
0
196608
327680
458752
589824
917504
1179648
720896
393216
458752
589824
524288
655360
786432
851968
786432
720896
720896
720896
851968
786432
720896
524288
393216
393216
458752
589824
655360
589824
458752
458752
458752
524288
655360
786432
524288
131072
262144
327680
458752
655360
720896
655360
786432
917504
917504
655360
786432
851968
262144
-1900544
-5636096
-8060928
-5832704
-1048576
1507328
1638400
1179648
851968
589824
524288
589824
589824
458752
393216
327680
393216
327680
196608
0
-65536
-196608
-327680
-589824
-983040
-1310720
-1507328
-1638400
-1900544
-2031616
-1966080
-1441792
-851968
-589824
-393216
0
262144
262144
262144
458752
851968
917504
851968
786432
851968
851968
983040
1048576
917504
851968
851968
851968
917504
983040
1048576
983040
983040
1048576
1048576
983040
1048576
1048576
1048576
1048576
983040
851968
851968
786432
786432
786432
786432
851968
851968
851968
917504
983040
917504
851968
851968
786432
786432
917504
327680
-1900544
-5832704
-7864320
-5242880
-655360
1507328
1572864
1114112
851968
720896
655360
524288
458752
327680
262144
262144
196608
131072
131072
0
-131072
-393216
-589824
-917504
-1179648
-1507328
-1835008
-2097152
-2228224
-2097152
-1835008
-1572864
-1310720
-851968
-458752
-131072
65536
262144
327680
458752
393216
393216
524288
589824
589824
524288
524288
589824
589824
655360
655360
589824
655360
720896
655360
589824
524288
589824
655360
589824
589824
589824
589824
524288
393216
327680
327680
393216
458752
524288
589824
655360
786432
851968
786432
720896
786432
917504
917504
917504
917504
196608
-2293760
-6029312
-7208960
-3997696
262144
2031616
1835008
1376256
1048576
917504
786432
655360
655360
655360
589824
393216
327680
262144
196608
65536
0
-131072
-327680
-655360
-1048576
-1376256
-1638400
-1835008
-1900544
-1835008
-1703936
-1376256
-917504
-524288
-196608
0
196608
327680
458752
589824
589824
589824
655360
655360
655360
720896
720896
720896
655360
655360
720896
720896
655360
589824
589824
589824
589824
524288
458752
458752
393216
327680
262144
196608
131072
0
0
196608
393216
458752
393216
393216
458752
458752
327680
262144
262144
262144
262144
262144
0
-1769472
-5308416
-7995392
-5963776
-1114112
1835008
1966080
1245184
720896
458752
393216
262144
262144
131072
0
-131072
-196608
-196608
-262144
-524288
-720896
-917504
-1114112
-1441792
-1835008
-2228224
-2490368
-2686976
-2883584
-3014656
-2818048
-2359296
-1900544
-1507328
-1048576
-655360
-262144
0
196608
196608
196608
262144
262144
327680
327680
393216
393216
458752
524288
458752
393216
458752
589824
655360
589824
589824
524288
458752
458752
458752
458752
524288
524288
393216
327680
327680
393216
393216
393216
458752
458752
524288
589824
720896
720896
655360
589824
655360
786432
917504
458752
-1441792
-5177344
-8585216
-7340032
-2359296
1310720
1835008
1376256
983040
851968
786432
589824
393216
393216
393216
327680
327680
327680
131072
0
-196608
-327680
-524288
-786432
-1048576
-1310720
-1703936
-1966080
-2031616
-2097152
-1966080
-1769472
-1376256
-983040
-524288
-262144
-65536
131072
393216
524288
589824
589824
589824
589824
589824
524288
589824
720896
851968
786432
720896
655360
720896
786432
851968
851968
917504
917504
851968
720896
720896
786432
786432
786432
655360
655360
720896
655360
524288
524288
655360
720896
786432
786432
851968
983040
1048576
983040
983040
1048576
1048576
983040
0
-2752512
-6946816
-8388608
-4849664
65536
2031616
1900544
1507328
1179648
1048576
983040
851968
720896
589824
524288
524288
589824
458752
262144
0
0
-262144
-458752
-786432
-1114112
-1507328
-1769472
-1900544
-1900544
-1900544
-1703936
-1376256
-983040
-524288
-131072
131072
393216
524288
655360
786432
851968
786432
720896
720896
720896
786432
786432
786432
851968
851968
851968
720896
786432
786432
851968
851968
851968
851968
851968
786432
720896
720896
786432
786432
786432
786432
786432
851968
655360
524288
458752
393216
458752
589824
655360
720896
786432
851968
851968
851968
851968
786432
786432
786432
851968
786432
0
-2555904
-6750208
-8454144
-4980736
0
1966080
1703936
1245184
983040
851968
786432
655360
589824
524288
524288
458752
327680
262144
131072
65536
-65536
-393216
-720896
-983040
-1245184
-1507328
-1769472
-2031616
-2162688
-2162688
-2031616
-1703936
-1179648
-720896
-327680
0
131072
262144
393216
589824
655360
655360
655360
589824
589824
589824
655360
720896
720896
720896
720896
786432
851968
851968
851968
851968
786432
720896
655360
655360
655360
589824
589824
655360
720896
720896
720896
786432
851968
786432
655360
589824
589824
786432
917504
851968
720896
589824
524288
458752
524288
655360
786432
786432
786432
851968
851968
786432
720896
786432
917504
917504
786432
-196608
-3145728
-7340032
-8388608
-4587520
131072
1966080
1835008
1441792
1048576
851968
655360
524288
458752
393216
393216
262144
131072
0
0
-131072
-262144
-458752
-786432
-1114112
-1507328
-1703936
-1900544
-2097152
-2293760
-2293760
-2162688
-1835008
-1441792
-1048576
-655360
-393216
-131072
65536
262144
458752
524288
458752
327680
327680
393216
524288
458752
393216
393216
524288
589824
655360
720896
655360
458752
458752
458752
524288
589824
524288
524288
524288
458752
458752
524288
655360
655360
589824
524288
524288
589824
589824
458752
458752
524288
589824
655360
655360
655360
589824
524288
393216
393216
458752
524288
655360
720896
655360
655360
786432
786432
786432
786432
786432
786432
786432
655360
-589824
-3932160
-7929856
-7798784
-3211264
917504
1966080
1572864
1245184
983040
917504
851968
786432
655360
589824
589824
524288
393216
262144
131072
0
-65536
-262144
-524288
-786432
-1245184
-1703936
-1900544
-2097152
-2162688
-2162688
-1966080
-1572864
-1179648
-786432
-524288
-262144
0
196608
262144
327680
393216
393216
393216
393216
458752
393216
327680
327680
327680
458752
458752
393216
393216
393216
393216
458752
393216
196608
131072
131072
196608
196608
196608
262144
262144
262144
262144
262144
262144
196608
196608
196608
196608
196608
196608
196608
262144
327680
262144
196608
65536
0
-65536
-65536
0
65536
131072
131072
196608
262144
262144
262144
196608
196608
196608
262144
196608
-851968
-3801088
-7602176
-7995392
-3932160
327680
1703936
1376256
851968
458752
262144
131072
65536
0
0
-65536
-196608
-262144
-393216
-524288
-720896
-786432
-983040
-1245184
-1572864
-1966080
-2359296
-2752512
-3014656
-3080192
-3014656
-2752512
-2359296
-1769472
-1245184
-720896
-327680
0
131072
262144
458752
589824
655360
720896
720896
655360
720896
786432
851968
983040
1048576
1114112
1114112
1048576
983040
983040
983040
786432
720896
786432
851968
917504
917504
983040
917504
917504
917504
983040
1114112
1114112
917504
720896
655360
720896
720896
786432
983040
1048576
1048576
1048576
1114112
1114112
1048576
983040
1048576
1114112
1048576
720896
-655360
-3801088
-6815744
-5636096
-1114112
2228224
2686976
2097152
1507328
1179648
917504
720896
655360
524288
393216
262144
196608
131072
0
-131072
-327680
-524288
-720896
-983040
-1310720
-1638400
-1966080
-2228224
-2424832
-2490368
-2424832
-2162688
-1703936
-1179648
-589824
-131072
131072
393216
458752
458752
655360
720896
720896
655360
720896
720896
786432
720896
786432
786432
786432
720896
655360
655360
720896
786432
720896
589824
524288
524288
589824
589824
589824
655360
655360
589824
655360
655360
655360
655360
720896
720896
524288
393216
262144
262144
458752
589824
589824
589824
655360
655360
589824
655360
720896
655360
655360
655360
524288
0
-2162688
-5963776
-8454144
-6029312
-1114112
1572864
1703936
1179648
720896
524288
458752
327680
262144
131072
131072
0
-65536
-262144
-327680
-327680
-524288
-720896
-1048576
-1310720
-1638400
-1900544
-2293760
-2490368
-2686976
-2686976
-2555904
-2293760
-1900544
-1507328
-1179648
-786432
-524288
-327680
-131072
0
0
0
65536
0
0
-65536
-262144
-458752
-786432
-327680
393216
131072
-131072
65536
851968
786432
589824
720896
851968
1048576
1114112
1114112
983040
786432
720896
720896
1048576
1310720
1179648
720896
655360
720896
1114112
1310720
1376256
1114112
983040
1310720
1441792
1245184
1048576
1179648
1245184
1245184
1245184
1048576
917504
-196608
-3538944
-7405568
-7405568
-3407872
393216
1638400
1703936
1638400
1507328
1245184
1114112
851968
1048576
851968
589824
786432
983040
786432
327680
196608
131072
65536
-262144
-589824
-851968
-1179648
-1507328
-1638400
-1572864
-1769472
-1769472
-1376256
-655360
-196608
65536
262144
589824
851968
983040
917504
851968
720896
851968
917504
917504
1048576
1245184
1179648
1114112
983040
1048576
1179648
1179648
983040
1048576
917504
786432
851968
983040
917504
786432
851968
1048576
1114112
1114112
1179648
1245184
1048576
786432
720896
655360
720896
786432
983040
1179648
1376256
1376256
1245184
1048576
1114112
1179648
1245184
1179648
1179648
1114112
196608
-2621440
-6815744
-7995392
-4194304
524288
2228224
2031616
1572864
1245184
1114112
917504
720896
589824
458752
458752
458752
327680
131072
0
-131072
-327680
-524288
-786432
-1114112
-1572864
-2031616
-2359296
-2555904
-2621440
-2621440
-2424832
-2097152
-1638400
-1245184
-917504
-589824
-262144
0
131072
65536
65536
196608
262144
196608
196608
196608
196608
262144
327680
393216
327680
327680
327680
393216
327680
262144
262144
262144
196608
196608
327680
458752
458752
393216
393216
262144
131072
131072
196608
196608
262144
393216
458752
524288
655360
720896
786432
786432
786432
851968
851968
851968
786432
393216
-1441792
-4980736
-7208960
-4653056
65536
2621440
2686976
2031616
1441792
983040
917504
851968
720896
589824
524288
393216
262144
131072
65536
0
-131072
-327680
-655360
-1048576
-1507328
-1835008
-2162688
-2424832
-2555904
-2555904
-2228224
-1835008
-1507328
-1048576
-589824
-196608
65536
327680
458752
589824
589824
655360
655360
655360
720896
786432
851968
851968
786432
720896
655360
655360
720896
720896
655360
589824
589824
589824
589824
589824
589824
589824
589824
589824
589824
655360
720896
655360
458752
393216
458752
458752
524288
720896
786432
720896
655360
655360
720896
786432
851968
786432
786432
786432
851968
65536
-2490368
-6553600
-8192000
-4980736
-196608
1900544
1835008
1441792
1048576
851968
655360
524288
589824
524288
393216
327680
196608
0
0
-65536
-131072
-393216
-655360
-917504
-1310720
-1703936
-2031616
-2228224
-2228224
-2228224
-2031616
-1703936
-1310720
-917504
-458752
-65536
65536
327680
524288
589824
589824
524288
458752
524288
524288
589824
524288
589824
589824
589824
655360
720896
851968
851968
786432
786432
720896
589824
524288
589824
524288
458752
393216
524288
589824
655360
720896
720896
589824
524288
458752
393216
262144
327680
458752
524288
589824
655360
720896
786432
851968
786432
720896
655360
720896
720896
327680
-1638400
-5570560
-8519680
-6553600
-1441792
1703936
1966080
1441792
983040
786432
655360
524288
393216
393216
393216
327680
196608
0
0
-65536
-262144
-458752
-720896
-983040
-1310720
-1638400
-2031616
-2228224
-2359296
-2424832
-2228224
-1900544
-1507328
-1048576
-589824
-196608
65536
262144
327680
393216
458752
524288
589824
589824
589824
655360
786432
786432
655360
655360
720896
786432
786432
786432
720896
720896
786432
786432
720896
655360
589824
655360
720896
720896
655360
589824
589824
655360
655360
720896
786432
786432
786432
786432
655360
524288
458752
524288
589824
589824
589824
589824
655360
720896
786432
851968
851968
786432
720896
589824
524288
-393216
-3276800
-7405568
-8257536
-4390912
131072
1769472
1638400
1114112
720896
524288
458752
327680
262144
262144
262144
196608
0
-131072
-262144
-393216
-589824
-786432
-983040
-1376256
-1769472
-2162688
-2424832
-2686976
-2686976
-2686976
-2555904
-2228224
-1769472
-1179648
-720896
-262144
0
262144
393216
393216
327680
458752
655360
786432
786432
786432
720896
655360
589824
655360
786432
851968
917504
917504
851968
851968
851968
786432
720896
720896
589824
589824
589824
655360
589824
655360
720896
851968
786432
655360
589824
524288
393216
327680
458752
524288
655360
786432
917504
983040
917504
851968
851968
851968
851968
917504
851968
786432
0
-2293760
-5570560
-6291456
-2752512
1441792
2752512
2228224
1572864
1114112
851968
720896
524288
458752
393216
327680
196608
0
-65536
-131072
-262144
-327680
-589824
-917504
-1310720
-1769472
-2162688
-2424832
-2621440
-2686976
-2686976
-2424832
-2031616
-1507328
-917504
-393216
0
131072
196608
327680
524288
655360
655360
655360
589824
524288
589824
720896
786432
786432
786432
720896
655360
589824
524288
458752
458752
458752
393216
393216
458752
524288
589824
524288
524288
589824
655360
655360
524288
524288
589824
655360
655360
655360
589824
589824
458752
393216
327680
393216
524288
655360
720896
720896
720896
655360
786432
786432
786432
786432
786432
655360
65536
-1966080
-5636096
-7864320
-5570560
-983040
1572864
1703936
1310720
917504
655360
589824
524288
458752
327680
262144
196608
196608
65536
0
-131072
-262144
-393216
-589824
-851968
-1179648
-1507328
-1769472
-1966080
-2162688
-2162688
-2097152
-1900544
-1507328
-1048576
-655360
-262144
0
262144
393216
524288
524288
524288
589824
589824
655360
589824
589824
655360
720896
720896
589824
589824
589824
720896
786432
720896
589824
589824
589824
589824
458752
524288
589824
589824
589824
589824
589824
524288
524288
524288
655360
720896
720896
720896
720896
589824
524288
393216
327680
393216
655360
655360
589824
589824
655360
720896
720896
720896
720896
720896
655360
458752
-655360
-3735552
-7471104
-7536640
-3407872
655360
1900544
1572864
1114112
786432
655360
458752
327680
327680
262144
196608
131072
0
-65536
-196608
-327680
-393216
-655360
-851968
-1179648
-1441792
-1703936
-2031616
-2228224
-2359296
-2359296
-2228224
-1835008
-1441792
-983040
-524288
-196608
65536
262144
458752
524288
458752
458752
458752
458752
524288
524288
458752
458752
589824
720896
655360
655360
720896
786432
851968
786432
589824
458752
458752
524288
524288
524288
458752
393216
458752
524288
524288
524288
524288
524288
589824
589824
655360
720896
720896
720896
655360
589824
524288
524288
393216
327680
327680
458752
524288
589824
655360
720896
720896
655360
655360
589824
589824
589824
589824
327680
-1245184
-4784128
-8060928
-6750208
-2097152
1310720
1835008
1310720
983040
720896
655360
589824
524288
393216
327680
196608
131072
0
-65536
-131072
-262144
-458752
-655360
-983040
-1310720
-1638400
-1900544
-2162688
-2359296
-2359296
-2293760
-2097152
-1835008
-1376256
-917504
-524288
-131072
131072
262144
393216
393216
458752
524288
524288
524288
589824
655360
589824
524288
524288
524288
589824
655360
720896
720896
720896
720896
589824
589824
589824
655360
589824
589824
589824
524288
458752
458752
524288
524288
655360
655360
655360
589824
589824
655360
720896
720896
655360
655360
655360
589824
458752
327680
262144
393216
524288
655360
720896
720896
720896
720896
720896
786432
786432
655360
589824
655360
393216
-1310720
-4915200
-7864320
-6356992
-1507328
1572864
1900544
1441792
1048576
720896
589824
524288
524288
524288
393216
131072
65536
65536
65536
-65536
-327680
-524288
-786432
-983040
-1245184
-1638400
-1966080
-2162688
-2293760
-2424832
-2359296
-2228224
-1835008
-1310720
-851968
-393216
-65536
131072
327680
458752
458752
458752
589824
589824
589824
524288
524288
524288
589824
655360
720896
720896
786432
720896
655360
589824
655360
589824
524288
524288
589824
589824
589824
589824
524288
458752
524288
524288
655360
655360
589824
524288
589824
589824
589824
524288
655360
720896
720896
655360
524288
393216
393216
458752
589824
655360
655360
655360
655360
720896
786432
851968
851968
786432
786432
786432
196608
-1966080
-5832704
-7995392
-5308416
-393216
2097152
2162688
1572864
1048576
786432
720896
655360
589824
458752
393216
327680
262144
131072
0
-131072
-262144
-393216
-720896
-1048576
-1376256
-1638400
-1900544
-2162688
-2424832
-2490368
-2359296
-2097152
-1703936
-1179648
-720896
-393216
-65536
131072
262144
327680
458752
524288
524288
589824
589824
589824
589824
589824
589824
589824
589824
655360
655360
655360
655360
655360
589824
524288
524288
524288
524288
458752
524288
589824
589824
589824
655360
655360
589824
524288
524288
524288
589824
655360
655360
720896
786432
786432
720896
589824
393216
196608
327680
524288
655360
655360
589824
524288
655360
720896
786432
851968
851968
786432
589824
458752
-851968
-4259840
-7798784
-7208960
-2621440
1179648
2031616
1572864
1179648
786432
720896
655360
524288
327680
327680
196608
65536
0
0
-131072
-262144
-458752
-589824
-851968
-1179648
-1572864
-1966080
-2228224
-2424832
-2490368
-2490368
-2359296
-2031616
-1572864
-1048576
-589824
-196608
65536
262144
393216
393216
393216
458752
524288
589824
524288
524288
655360
720896
655360
589824
589824
655360
655360
589824
589824
589824
589824
655360
655360
655360
655360
589824
458752
458752
524288
655360
655360
589824
589824
655360
655360
589824
589824
655360
655360
589824
655360
720896
720896
524288
393216
327680
393216
524288
655360
655360
655360
655360
655360
720896
720896
720896
720896
786432
786432
524288
-983040
-4521984
-7929856
-6946816
-2228224
1376256
2031616
1441792
983040
720896
655360
524288
458752
393216
327680
262144
196608
65536
0
-262144
-327680
-458752
-655360
-983040
-1310720
-1572864
-1966080
-2228224
-2424832
-2424832
-2424832
-2228224
-1900544
-1441792
-917504
-524288
-196608
0
196608
393216
458752
458752
524288
589824
589824
524288
524288
589824
589824
655360
655360
655360
655360
655360
589824
524288
589824
524288
524288
524288
589824
524288
524288
458752
458752
524288
589824
655360
655360
524288
524288
458752
524288
720896
720896
655360
589824
655360
720896
720896
589824
393216
262144
262144
327680
458752
589824
589824
655360
655360
720896
786432
786432
786432
720896
589824
655360
0
-2424832
-6488064
-8126464
-4849664
0
2031616
1835008
1310720
983040
720896
655360
524288
458752
458752
458752
262144
65536
0
0
-131072
-262144
-458752
-655360
-1048576
-1376256
-1703936
-1966080
-2228224
-2359296
-2359296
-2293760
-2031616
-1572864
-1048576
-655360
-393216
-131072
65536
262144
458752
524288
524288
524288
524288
589824
589824
655360
655360
720896
786432
655360
589824
655360
720896
655360
589824
589824
589824
589824
524288
524288
589824
655360
720896
655360
720896
720896
589824
589824
589824
524288
524288
589824
655360
720896
786432
655360
655360
655360
655360
458752
327680
327680
524288
720896
786432
720896
720896
655360
786432
917504
917504
786432
851968
851968
655360
-720896
-4063232
-7667712
-7077888
-2490368
1376256
2228224
1703936
1245184
983040
917504
786432
655360
524288
458752
393216
327680
196608
196608
131072
0
-196608
-327680
-458752
-851968
-1310720
-1638400
-1900544
-2162688
-2228224
-2097152
-1835008
-1572864
-1179648
-720896
-327680
-65536
131072
393216
524288
524288
458752
458752
524288
524288
589824
655360
720896
589824
458752
458752
458752
393216
524288
655360
655360
524288
327680
262144
262144
393216
524288
589824
458752
262144
196608
262144
393216
393216
393216
458752
720896
851968
786432
589824
458752
327680
327680
393216
393216
327680
524288
786432
917504
917504
851968
786432
720896
720896
786432
786432
589824
-196608
-2621440
-6160384
-6619136
-2490368
1900544
3145728
2555904
1769472
1048576
655360
589824
589824
524288
393216
262144
131072
0
-65536
-393216
-786432
-983040
-1048576
-1179648
-1572864
-2031616
-2424832
-2686976
-2949120
-3211264
-3407872
-3211264
-2686976
-2031616
-1507328
-983040
-458752
-65536
131072
393216
458752
458752
589824
786432
786432
655360
524288
655360
786432
720896
655360
589824
589824
589824
655360
589824
589824
589824
589824
589824
589824
589824
589824
589824
589824
655360
655360
655360
524288
393216
327680
327680
393216
458752
589824
655360
720896
786432
786432
786432
851968
851968
851968
851968
917504
786432
458752
-655360
-3407872
-6815744
-6553600
-2359296
1638400
2621440
2097152
1507328
1048576
786432
655360
589824
393216
262144
196608
65536
0
0
0
-196608
-393216
-589824
-983040
-1376256
-1703936
-2097152
-2359296
-2490368
-2424832
-2424832
-2228224
-1835008
-1310720
-851968
-458752
-65536
131072
393216
589824
655360
720896
720896
720896
720896
720896
720896
720896
851968
851968
851968
917504
983040
983040
917504
851968
917504
786432
655360
458752
393216
393216
589824
720896
786432
655360
589824
655360
655360
720896
720896
589824
524288
524288
524288
589824
589824
589824
655360
720896
851968
983040
983040
917504
917504
851968
786432
196608
-2031616
-6160384
-8388608
-5636096
-458752
2162688
2293760
1703936
1179648
851968
720896
655360
458752
327680
393216
458752
327680
65536
0
-65536
-196608
-327680
-720896
-1114112
-1376256
-1769472
-2162688
-2424832
-2555904
-2555904
-2359296
-2097152
-1703936
-1245184
-786432
-327680
0
196608
393216
458752
458752
524288
589824
589824
589824
720896
720896
720896
720896
720896
720896
720896
720896
786432
786432
720896
655360
589824
589824
589824
524288
458752
524288
524288
589824
655360
720896
786432
786432
720896
524288
262144
262144
262144
393216
458752
589824
655360
720896
786432
851968
786432
655360
655360
655360
720896
720896
131072
-2097152
-6029312
-8257536
-5570560
-589824
2031616
2162688
1572864
1048576
786432
720896
589824
524288
458752
327680
196608
65536
0
-65536
-131072
-196608
-327680
-720896
-1114112
-1376256
-1769472
-2097152
-2424832
-2555904
-2555904
-2424832
-2031616
-1572864
-1114112
-720896
-327680
0
262144
458752
524288
589824
589824
589824
589824
589824
524288
589824
655360
655360
655360
655360
786432
786432
786432
786432
786432
720896
589824
589824
589824
589824
589824
655360
655360
589824
524288
524288
524288
589824
589824
655360
786432
851968
851968
720896
524288
327680
262144
393216
524288
655360
655360
720896
786432
786432
786432
786432
851968
786432
720896
720896
589824
-524288
-3670016
-7733248
-8060928
-3670016
851968
2228224
1769472
1245184
851968
655360
589824
655360
524288
327680
262144
196608
65536
0
-65536
-196608
-393216
-655360
-983040
-1310720
-1572864
-1900544
-2162688
-2359296
-2555904
-2621440
-2424832
-2031616
-1572864
-1179648
-655360
-262144
0
196608
393216
524288
589824
589824
524288
524288
589824
589824
524288
524288
589824
655360
720896
720896
720896
720896
720896
786432
720896
655360
589824
589824
589824
589824
524288
458752
524288
589824
655360
655360
655360
589824
524288
524288
589824
655360
655360
655360
720896
786432
786432
720896
524288
458752
393216
393216
393216
524288
589824
655360
786432
851968
786432
786432
851968
917504
851968
720896
262144
-1507328
-5308416
-8585216
-7077888
-1966080
1638400
2162688
1572864
1114112
786432
655360
589824
524288
458752
327680
196608
131072
65536
0
-131072
-327680
-458752
-655360
-917504
-1310720
-1638400
-1966080
-2293760
-2424832
-2490368
-2490368
-2359296
-1966080
-1441792
-917504
-458752
-131072
65536
131072
262144
393216
524288
589824
524288
524288
524288
589824
655360
720896
720896
720896
720896
786432
720896
589824
589824
655360
655360
589824
524288
458752
524288
524288
589824
655360
524288
458752
524288
655360
720896
655360
589824
524288
589824
589824
589824
589824
720896
720896
655360
655360
655360
720896
655360
524288
458752
458752
524288
589824
720896
720896
655360
655360
655360
655360
720896
786432
786432
786432
720896
327680
-1572864
-5439488
-8454144
-6750208
-1769472
1507328
2031616
1507328
1048576
655360
589824
589824
655360
524288
327680
262144
196608
65536
-65536
-131072
-327680
-524288
-720896
-917504
-1245184
-1703936
-2031616
-2293760
-2424832
-2490368
-2555904
-2424832
-2031616
-1507328
-1048576
-589824
-196608
65536
262144
262144
327680
458752
524288
524288
524288
524288
524288
589824
655360
655360
655360
655360
655360
655360
655360
655360
589824
589824
589824
524288
458752
524288
589824
589824
589824
589824
589824
524288
458752
589824
655360
655360
524288
524288
589824
589824
655360
655360
589824
589824
720896
786432
786432
786432
589824
327680
327680
327680
327680
458752
589824
720896
720896
786432
786432
720896
720896
720896
786432
786432
720896
524288
-917504
-4521984
-8323072
-7602176
-2752512
1245184
2162688
1769472
1310720
917504
720896
589824
524288
458752
458752
327680
262144
131072
0
-65536
-196608
-393216
-589824
-851968
-1179648
-1507328
-1900544
-2162688
-2424832
-2555904
-2621440
-2424832
-2097152
-1638400
-1114112
-655360
-262144
0
131072
327680
458752
524288
524288
589824
589824
524288
524288
589824
655360
655360
589824
524288
589824
589824
589824
655360
589824
524288
524288
458752
393216
393216
393216
393216
458752
524288
524288
458752
327680
458752
589824
458752
393216
393216
458752
458752
458752
524288
524288
589824
655360
589824
458752
262144
131072
196608
327680
589824
720896
851968
786432
655360
655360
786432
786432
786432
851968
786432
393216
-983040
-4194304
-7012352
-5439488
-589824
2621440
2818048
2162688
1441792
786432
458752
393216
393216
327680
262144
65536
-65536
-196608
-262144
-524288
-655360
-786432
-983040
-1376256
-1769472
-2162688
-2490368
-2883584
-3211264
-3407872
-3407872
-3145728
-2752512
-2162688
-1507328
-983040
-458752
0
196608
262144
327680
458752
524288
524288
524288
458752
393216
458752
524288
524288
589824
589824
589824
524288
458752
393216
327680
327680
327680
327680
327680
327680
327680
327680
327680
327680
393216
458752
458752
262144
65536
0
-327680
-458752
-327680
-131072
65536
720896
1572864
1769472
1572864
1376256
1441792
1310720
1048576
917504
1179648
1114112
655360
-1376256
-4915200
-6553600
-3407872
1048576
3211264
2818048
2162688
1769472
1703936
1507328
1310720
1179648
917504
851968
983040
917504
589824
458752
393216
327680
65536
-131072
-589824
-1048576
-1572864
-1966080
-2162688
-2293760
-2293760
-2162688
-1966080
-1507328
-917504
-458752
-131072
131072
327680
589824
720896
720896
655360
720896
720896
720896
720896
720896
720896
720896
786432
851968
851968
786432
786432
720896
655360
655360
655360
655360
524288
393216
327680
393216
524288
720896
786432
655360
589824
589824
589824
589824
524288
327680
327680
458752
524288
458752
458752
458752
655360
720896
720896
589824
720896
786432
720896
524288
589824
655360
262144
-1703936
-5767168
-8847360
-6815744
-1572864
1638400
1966080
1507328
1114112
851968
720896
524288
393216
327680
262144
262144
131072
0
-65536
-131072
-262144
-458752
-589824
-851968
-1245184
-1638400
-2031616
-2359296
-2621440
-2752512
-2555904
-2228224
-1835008
-1376256
-851968
-393216
0
262144
327680
393216
393216
393216
524288
655360
589824
589824
589824
655360
720896
851968
917504
917504
851968
851968
786432
720896
655360
524288
589824
655360
720896
720896
655360
589824
720896
720896
655360
655360
786432
917504
851968
720896
589824
524288
524288
589824
655360
720896
720896
786432
917504
917504
917504
917504
983040
983040
983040
983040
589824
-1179648
-4915200
-8454144
-7274496
-2228224
1572864
2228224
1769472
1245184
917504
851968
786432
786432
589824
458752
393216
393216
327680
196608
0
0
-131072
-393216
-655360
-983040
-1310720
-1638400
-1966080
-2293760
-2424832
-2293760
-2031616
-1769472
-1376256
-851968
-327680
0
131072
327680
458752
589824
720896
786432
786432
655360
589824
589824
720896
720896
720896
720896
786432
851968
851968
851968
786432
720896
655360
589824
524288
589824
589824
589824
524288
589824
655360
655360
655360
655360
655360
786432
917504
786432
524288
327680
262144
196608
262144
393216
589824
655360
655360
524288
524288
524288
589824
655360
655360
655360
655360
589824
-589824
-3866624
-7995392
-8192000
-3866624
655360
1966080
1638400
1114112
786432
655360
589824
458752
327680
65536
0
0
0
-65536
-131072
-327680
-458752
-786432
-1114112
-1376256
-1703936
-2228224
-2686976
-2949120
-3145728
-3211264
-2949120
-2490368
-2031616
-1507328
-917504
-458752
-131072
0
131072
196608
262144
327680
458752
458752
524288
458752
393216
458752
589824
655360
655360
589824
524288
589824
589824
524288
458752
589824
655360
655360
655360
655360
655360
589824
589824
589824
655360
655360
720896
786432
786432
655360
589824
458752
393216
524288
655360
851968
983040
1048576
983040
983040
1048576
1114112
1114112
1048576
983040
1048576
983040
0
-2818048
-6356992
-6422528
-2031616
2031616
2949120
2424832
1835008
1310720
983040
786432
655360
655360
589824
589824
327680
65536
0
0
-131072
-393216
-589824
-851968
-1310720
-1703936
-2162688
-2621440
-2883584
-2949120
-3014656
-2818048
-2359296
-1835008
-1245184
-720896
-327680
0
196608
393216
524288
655360
720896
655360
655360
655360
655360
589824
655360
720896
786432
851968
786432
720896
589824
524288
524288
458752
524288
589824
589824
589824
524288
589824
655360
655360
589824
589824
655360
720896
720896
655360
589824
589824
458752
393216
458752
524288
589824
720896
786432
786432
786432
851968
917504
917504
851968
917504
917504
589824
-1048576
-4390912
-7733248
-6815744
-2162688
1572864
2293760
1835008
1310720
917504
720896
589824
524288
393216
327680
196608
196608
65536
0
-131072
-262144
-393216
-655360
-983040
-1376256
-1769472
-2228224
-2490368
-2686976
-2752512
-2686976
-2555904
-2293760
-1703936
-1114112
-655360
-196608
65536
196608
327680
458752
524288
589824
589824
589824
655360
655360
655360
655360
720896
655360
720896
786432
786432
720896
655360
655360
655360
589824
589824
655360
655360
655360
589824
589824
589824
589824
655360
720896
786432
851968
655360
524288
393216
393216
393216
524288
589824
720896
786432
786432
720896
786432
720896
720896
720896
720896
720896
655360
0
-2424832
-6422528
-8519680
-5636096
-524288
1835008
1835008
1245184
917504
655360
589824
458752
393216
327680
262144
196608
196608
65536
0
-65536
-262144
-589824
-851968
-983040
-1310720
-1769472
-2097152
-2359296
-2555904
-2621440
-2490368
-2162688
-1703936
-1310720
-851968
-393216
0
131072
196608
262144
327680
458752
589824
589824
589824
589824
655360
589824
589824
720896
786432
786432
720896
786432
720896
655360
655360
655360
655360
589824
524288
589824
589824
589824
589824
655360
655360
655360
655360
655360
720896
851968
851968
786432
720896
589824
458752
327680
393216
589824
720896
786432
786432
786432
786432
851968
917504
917504
851968
786432
786432
655360
-327680
-3342336
-7536640
-8519680
-4587520
131072
1966080
1835008
1376256
917504
786432
786432
589824
524288
458752
393216
262144
131072
65536
0
0
-196608
-458752
-655360
-983040
-1310720
-1703936
-2031616
-2293760
-2424832
-2555904
-2359296
-2031616
-1638400
-1245184
-720896
-327680
0
131072
327680
458752
589824
655360
589824
589824
589824
524288
589824
589824
589824
655360
655360
589824
589824
589824
589824
589824
655360
589824
589824
524288
524288
524288
589824
524288
524288
524288
524288
458752
458752
458752
458752
524288
524288
524288
