458752
786432
917504
917504
-917504
1441792
851968
327680
327680
-327680
-1638400
-2031616
655360
655360
851968
851968
851968
786432
589824
786432
786432
589824
458752
720896
720896
-6815744
1835008
524288
524288
65536
-720896
-2293760
-2293760
-1966080
-131072
393216
327680
524288
393216
393216
524288
589824
655360
589824
589824
720896
786432
-6881280
1966080
327680
0
0
-1245184
-2818048
-1900544
0
0
393216
589824
589824
393216
524288
458752
458752
196608
524288
589824
-3866624
-3866624
2097152
327680
0
-655360
-2031616
-1900544
-1900544
0
393216
655360
720896
720896
458752
458752
589824
458752
589824
655360
655360
655360
-5832704
1048576
262144
0
0
-983040
-2228224
-851968
458752
589824
589824
720896
851968
458752
589824
589824
720896
720896
589824
786432
851968
-7208960
1703936
1703936
524288
131072
-589824
-589824
-1966080
-1376256
458752
720896
851968
786432
786432
720896
655360
589824
720896
720896
720896
524288
786432
655360
-7733248
1703936
1703936
458752
-65536
-786432
-2490368
-1572864
0
196608
524288
655360
720896
524288
524288
524288
589824
720896
393216
393216
655360
720896
65536
-851968
786432
262144
262144
-131072
-1441792
-2359296
-393216
-393216
589824
655360
917504
720896
524288
589824
786432
851968
851968
589824
786432
786432
983040
-1900544
2686976
720896
327680
-393216
-2097152
-2097152
-2490368
-131072
524288
524288
655360
786432
458752
458752
524288
196608
196608
458752
720896
655360
-4521984
-4521984
1048576
327680
-458752
-1507328
-2883584
-1179648
-1179648
327680
393216
589824
262144
262144
458752
524288
786432
327680
655360
720896
-458752
-458752
2424832
655360
0
-393216
-393216
-2228224
-2555904
-458752
589824
655360
655360
983040
851968
720896
983040
983040
327680
786432
720896
-1441792
2162688
131072
-262144
-262144
-1245184
-2818048
-3145728
-3145728
-720896
0
262144
0
0
-262144
-262144
0
-262144
393216
0
0
458752
-720896
917504
1114112
524288
-458752
-458752
-1572864
131072
1114112
1376256
1376256
1048576
1179648
917504
851968
786432
720896
720896
720896
655360
-4849664
1966080
1966080
393216
393216
-458752
-1835008
-1507328
393216
393216
851968
917504
851968
983040
851968
786432
786432
851968
524288
655360
786432
786432
458752
-2490368
720896
131072
131072
-262144
-1572864
-2752512
196608
196608
131072
131072
262144
393216
196608
196608
196608
458752
524288
393216
589824
655360
458752
458752
-3997696
851968
65536
-262144
-262144
-1310720
-2490368
-1114112
393216
393216
393216
393216
524288
458752
393216
393216
524288
524288
327680
262144
458752
524288
-917504
-917504
1114112
589824
131072
-393216
-393216
-1507328
-2555904
-458752
458752
524288
524288
589824
589824
589824
655360
655360
655360
720896
917504
393216
720896
851968
-2228224
-2228224
2031616
655360
65536
-393216
-393216
-1769472
-2424832
-458752
589824
458752
720896
524288
524288
524288
589824
589824
589824
655360
458752
524288
720896
786432
-4784128
-4784128
1179648
327680
0
-1310720
-2883584
-2883584
-1376256
458752
589824
720896
589824
589824
589824
524288
589824
393216
786432
786432
851968
131072
131072
720896
262144
262144
-262144
-1507328
-2490368
-458752
-458752
458752
720896
720896
655360
589824
589824
589824
720896
655360
589824
720896
720896
786432
-6881280
1376256
458752
0
-917504
-917504
-2359296
-1441792
196608
524288
524288
589824
589824
458752
655360
589824
786432
327680
786432
786432
786432
-3080192
2293760
2293760
524288
131072
-524288
-1966080
-2228224
-2228224
524288
524288
589824
589824
589824
589824
524288
589824
655360
655360
196608
196608
655360
786432
-3670016
2031616
458752
458752
65536
-524288
-2097152
-2490368
-131072
-131072
720896
524288
786432
720896
720896
720896
786432
655360
720896
917504
851968
851968
-6160384
1966080
393216
-65536
-65536
-851968
-2621440
-1638400
393216
655360
655360
655360
720896
589824
720896
589824
589824
393216
720896
786432
458752
-2097152
720896
65536
65536
-327680
-1572864
-2752512
-2752512
-1048576
65536
196608
458752
720896
720896
524288
524288
655360
589824
720896
720896
983040
-5898240
2162688
851968
393216
0
0
-1441792
-2031616
262144
655360
1048576
1048576
851968
524288
524288
655360
589824
589824
589824
720896
851968
-3014656
589824
589824
393216
-131072
-1179648
-2359296
-786432
-786432
458752
458752
720896
589824
589824
786432
720896
655360
851968
851968
1048576
-7667712
-7667712
1638400
786432
393216
-327680
-327680
-1769472
-1310720
327680
393216
458752
458752
458752
196608
262144
196608
196608
65536
262144
327680
-7864320
1572864
458752
458752
0
-655360
-2162688
-1179648
-1179648
983040
1179648
1310720
1048576
786432
851968
851968
393216
851968
720896
851968
851968
-4915200
1376256
458752
-65536
-1114112
-2621440
-1114112
-1114112
196608
524288
720896
655360
655360
589824
589824
524288
655360
917504
917504
786432
-3276800
983040
393216
393216
196608
-917504
-2031616
-524288
720896
458752
458752
458752
524288
655360
327680
393216
393216
458752
655360
589824
-7405568
1114112
262144
262144
-65536
-917504
-2490368
-2490368
-1114112
327680
524288
589824
720896
720896
720896
589824
786432
393216
589824
589824
720896
786432
-6488064
1048576
458752
131072
131072
-851968
-2228224
-983040
327680
327680
655360
589824
655360
655360
589824
655360
720896
720896
458752
589824
983040
983040
786432
-5242880
983040
589824
0
-1048576
-1048576
-2359296
-1048576
262144
458752
458752
524288
458752
458752
262144
393216
393216
393216
393216
458752
720896
786432
786432
-6946816
1966080
458752
-65536
-720896
-2621440
-2621440
-1966080
196608
524288
720896
720896
720896
458752
458752
393216
196608
524288
524288
393216
327680
-4063232
786432
786432
131072
-720896
-1638400
-3276800
-1572864
-720896
-720896
524288
1179648
655360
1048576
1048576
1179648
983040
589824
851968
851968
-3080192
2097152
2097152
655360
786432
-262144
-262144
-1310720
-1835008
0
393216
1835008
720896
720896
983040
917504
327680
589824
589824
1179648
917504
-5963776
1835008
327680
589824
589824
-131072
-1376256
-1376256
327680
720896
655360
655360
720896
524288
655360
524288
262144
262144
655360
786432
-8060928
-8060928
1179648
589824
327680
-327680
-1638400
-851968
-851968
262144
851968
1048576
917504
917504
1048576
1048576
786432
851968
851968
327680
327680
-655360
720896
262144
0
0
-1179648
-2097152
-458752
458752
589824
655360
655360
655360
589824
393216
524288
524288
786432
917504
-7208960
1376256
655360
262144
-327680
-1835008
-1835008
-917504
327680
327680
655360
720896
655360
524288
262144
196608
458752
458752
-5308416
-5308416
1966080
262144
262144
-196608
-917504
-2490368
-2359296
-262144
-262144
393216
393216
458752
524288
524288
393216
393216
524288
589824
-1441792
1310720
786432
786432
327680
-196608
-1310720
-1310720
-1966080
-262144
589824
524288
720896
851968
851968
720896
655360
655360
983040
1048576
1048576
-8388608
1507328
720896
458752
-458752
-458752
-1900544
-983040
524288
720896
786432
786432
786432
851968
786432
851968
458752
458752
851968
786432
-2555904
1966080
786432
786432
458752
-65536
-1507328
-2031616
0
0
655360
589824
720896
851968
851968
655360
720896
655360
851968
524288
851968
851968
917504
-7340032
1835008
524288
524288
131072
-458752
-1900544
-1835008
-131072
458752
458752
458752
655360
458752
524288
524288
655360
589824
655360
393216
720896
786432
786432
655360
-3211264
983040
589824
589824
131072
-786432
-2162688
-786432
262144
393216
393216
327680
393216
131072
262144
262144
262144
196608
262144
-65536
196608
196608
196608
-3801088
1703936
131072
-196608
-196608
-786432
-2359296
-2752512
-327680
589824
720896
720896
1114112
983040
917504
917504
917504
720896
983040
1114112
1048576
-5636096
1507328
1507328
524288
0
-983040
-2424832
-2424832
-1179648
458752
655360
786432
655360
524288
524288
655360
655360
393216
589824
589824
655360
524288
-6029312
720896
131072
-327680
-1310720
-1310720
-2686976
-1507328
-131072
0
0
-786432
65536
851968
786432
1179648
1179648
1310720
1441792
1245184
-3538944
-3538944
1114112
1114112
786432
131072
-1179648
-1769472
262144
262144
851968
1048576
1048576
917504
917504
786432
1179648
655360
1376256
1179648
1179648
196608
524288
1114112
458752
-131072
-131072
-1572864
-2621440
-917504
65536
196608
393216
393216
327680
196608
393216
196608
196608
655360
851968
-1441792
2621440
917504
917504
393216
-131072
-1835008
-2228224
-196608
-196608
589824
786432
655360
589824
589824
589824
655360
458752
720896
851968
65536
65536
-196608
851968
393216
-65536
-1310720
-1310720
-2228224
-458752
589824
524288
589824
786432
786432
589824
589824
524288
458752
458752
786432
720896
-8519680
1441792
1441792
393216
0
-720896
-2228224
-1507328
262144
262144
589824
786432
786432
786432
720896
720896
655360
786432
524288
655360
786432
786432
-3276800
1769472
458752
196608
-589824
-589824
-2162688
-2555904
-262144
327680
786432
786432
786432
851968
589824
655360
655360
589824
524288
917504
917504
917504
2228224
2228224
524288
0
-589824
-2424832
-2031616
-2031616
131072
655360
720896
655360
458752
589824
589824
655360
655360
393216
393216
720896
786432
65536
-983040
-983040
262144
-131072
-131072
-1179648
-2162688
-655360
-655360
524288
655360
720896
786432
786432
589824
524288
524288
720896
393216
655360
655360
720896
-7471104
1572864
327680
327680
-655360
-2031616
-2031616
-1835008
65536
458752
458752
458752
655360
589824
524288
524288
589824
655360
655360
327680
655360
589824
589824
-1245184
1310720
655360
196608
-262144
-1638400
-2293760
-2293760
-524288
393216
589824
589824
524288
720896
655360
458752
458752
720896
720896
589824
524288
720896
589824
-7864320
1441792
1441792
524288
65536
65536
-2162688
-1835008
-1835008
131072
589824
524288
786432
786432
589824
589824
524288
589824
720896
720896
393216
655360
851968
-1966080
2097152
2097152
720896
327680
-262144
-262144
-2359296
-393216
-393216
458752
589824
589824
655360
655360
524288
589824
524288
720896
393216
655360
655360
786432
458752
-2621440
786432
786432
327680
-131072
-1179648
-2490368
-1048576
65536
589824
589824
655360
589824
655360
458752
458752
589824
655360
720896
524288
655360
655360
786432
-7929856
1441792
1441792
458752
65536
-655360
-2228224
-1900544
0
524288
524288
589824
655360
524288
524288
655360
655360
524288
655360
262144
589824
589824
786432
0
0
720896
720896
458752
-131072
-1376256
-2359296
-655360
458752
589824
589824
786432
655360
524288
524288
655360
589824
720896
655360
720896
786432
851968
851968
-7077888
1245184
524288
196608
196608
-458752
-2162688
-1179648
393216
524288
589824
589824
524288
262144
458752
458752
393216
786432
393216
917504
720896
-2621440
3145728
3145728
589824
131072
-983040
-983040
-2424832
-3211264
-458752
458752
524288
589824
589824
589824
589824
655360
327680
327680
720896
851968
458752
-2359296
1048576
262144
0
0
-1376256
-2424832
-851968
589824
589824
720896
851968
917504
917504
786432
720896
720896
524288
720896
917504
-6160384
-6160384
2293760
655360
327680
327680
-2162688
-2162688
-2097152
0
524288
720896
720896
720896
655360
458752
720896
262144
589824
786432
786432
720896
-5570560
1048576
458752
458752
-65536
-1114112
-2555904
-2555904
458752
589824
589824
655360
786432
589824
655360
655360
589824
851968
393216
786432
786432
-3670016
-3670016
2228224
589824
196608
-393216
-393216
-1900544
-2424832
-262144
589824
589824
720896
720896
786432
589824
589824
524288
524288
655360
524288
524288
786432
720896
-7077888
-7077888
1114112
458752
0
-917504
-917504
-2424832
-1441792
131072
524288
720896
720896
720896
589824
589824
655360
655360
589824
720896
655360
589824
655360
786432
-8454144
1507328
655360
655360
65536
-720896
-720896
-2293760
-2031616
65536
524288
589824
655360
655360
589824
589824
524288
524288
524288
655360
786432
327680
720896
720896
-917504
1245184
1245184
720896
327680
-196608
-196608
-1507328
-2621440
-655360
458752
524288
589824
589824
655360
393216
524288
589824
589824
458752
655360
196608
786432
786432
-4194304
-4194304
2818048
393216
-65536
-786432
-786432
-2490368
-3145728
-458752
458752
393216
589824
589824
327680
327680
393216
0
0
65536
1376256
1179648
1179648
2162688
1179648
1179648
589824
-131072
-2162688
-1507328
-1507328
327680
720896
720896
786432
655360
393216
589824
589824
327680
458752
589824
589824
589824
-8847360
1507328
393216
0
-589824
-589824
-2359296
-1835008
262144
524288
524288
655360
851968
524288
655360
655360
655360
589824
720896
917504
983040
-7274496
-7274496
1245184
589824
196608
-655360
-2293760
-1376256
-1376256
327680
786432
720896
851968
589824
589824
524288
655360
524288
393216
524288
655360
655360
-7995392
1638400
458752
458752
0
-786432
-2686976
-2490368
-131072
327680
393216
393216
589824
458752
655360
655360
655360
655360
655360
983040
983040
-6356992
-6356992
2424832
655360
65536
-589824
-589824
-2621440
-2359296
0
720896
589824
786432
786432
458752
524288
589824
589824
589824
786432
786432
917504
-7733248
1835008
524288
524288
65536
-655360
-2490368
-2490368
-2293760
65536
589824
655360
786432
655360
655360
655360
655360
524288
589824
589824
786432
720896
-8519680
1245184
393216
65536
-851968
-851968
-2359296
-1703936
131072
589824
589824
589824
720896
655360
589824
655360
851968
851968
786432
786432
917504
-327680
-327680
131072
786432
393216
0
-1310720
-2555904
-2555904
-720896
458752
589824
655360
655360
589824
524288
